357
352
347
343
341
341
343
346
348
351
353
354
356
356
355
353
349
344
338
348
353
341
339
337
336
347
402
495
605
687
649
455
295
280
343
370
351
333
341
348
339
337
347
355
345
345
355
356
344
350
361
361
349
356
367
367
355
367
377
372
365
377
384
378
375
387
393
387
391
403
410
399
403
414
419
409
414
422
417
398
398
397
386
369
371
370
356
343
348
351
342
338
346
348
335
336
348
351
339
344
353
354
342
349
355
351
340
347
354
348
340
346
349
342
337
346
349
336
335
345
347
333
333
341
340
326
333
339
336
324
333
339
335
325
333
338
329
321
330
333
323
321
332
334
320
321
332
335
324
330
340
339
329
335
341
337
330
338
343
334
329
340
344
335
333
342
344
333
336
348
351
343
350
366
369
356
367
384
380
365
370
374
366
355
357
353
344
340
347
351
342
343
353
353
335
331
354
399
461
570
681
679
498
319
294
341
358
360
353
341
335
347
353
342
340
351
357
345
344
351
352
341
348
356
355
345
355
363
359
350
361
369
363
355
366
375
370
370
382
392
385
391
403
410
399
403
411
411
399
403
408
398
381
382
381
369
355
360
361
347
338
346
352
341
339
347
351
341
341
351
351
340
346
356
354
344
350
358
352
341
349
354
346
341
349
352
340
337
347
348
334
335
343
344
331
335
342
342
330
337
344
341
333
340
347
341
334
344
348
337
333
342
348
337
337
346
346
333
338
346
346
333
335
341
337
324
333
341
334
326
334
337
330
327
338
342
329
332
345
353
348
358
370
370
363
376
383
378
362
364
367
358
342
344
348
339
333
341
346
337
337
342
333
319
345
409
497
597
686
637
436
276
277
335
353
336
335
340
333
328
337
344
336
334
346
350
340
343
356
356
339
343
354
357
347
357
364
363
356
366
375
370
364
378
388
381
376
389
397
390
395
408
410
399
404
415
416
398
400
404
396
378
379
381
369
358
365
366
354
347
356
361
348
347
358
360
348
351
359
359
345
351
361
359
349
355
360
354
346
356
361
351
341
352
358
345
343
354
355
342
343
353
351
334
339
348
345
332
340
347
342
329
336
344
336
330
341
345
332
329
339
342
330
332
342
345
330
334
345
343
328
335
345
341
330
340
348
342
337
350
361
355
352
362
373
366
362
370
368
348
350
357
348
329
338
351
346
333
344
353
346
332
333
340
353
397
491
607
691
649
463
302
268
319
357
351
325
327
338
338
324
331
338
332
321
335
345
336
330
343
346
335
335
352
359
346
349
362
367
356
364
379
381
370
379
390
389
384
398
408
405
397
409
415
406
400
409
412
396
392
395
387
365
364
371
364
346
351
358
355
342
349
356
348
340
351
357
345
338
350
355
342
342
352
355
341
344
353
352
340
347
356
351
339
347
352
345
338
351
356
345
338
349
355
344
342
354
355
340
340
351
354
339
345
351
349
338
347
354
348
338
348
354
346
337
350
353
340
337
350
355
339
338
349
350
335
340
350
350
336
345
360
362
354
369
378
372
369
384
385
375
367
374
374
356
348
356
359
347
349
359
357
346
354
357
344
334
372
440
527
628
700
630
407
276
307
360
357
343
345
347
335
337
346
347
335
342
351
350
336
345
352
346
338
350
358
349
342
354
362
352
349
361
368
356
358
372
377
365
376
388
388
374
385
396
394
384
395
404
397
385
391
389
371
359
364
362
344
340
346
346
330
333
343
342
327
334
345
340
327
339
349
343
333
342
349
341
336
345
348
336
336
346
349
336
339
350
348
333
341
352
349
335
347
354
346
333
343
350
340
331
344
350
336
332
346
349
334
338
351
349
332
339
350
348
332
342
352
346
334
344
353
345
337
351
357
343
336
348
352
335
338
354
356
339
347
364
360
341
358
379
377
365
382
392
378
370
391
397
378
367
379
382
356
347
361
365
341
342
357
357
338
347
352
333
317
361
437
522
618
696
613
382
261
308
358
343
324
332
335
313
318
338
339
315
323
340
334
310
322
336
325
304
319
333
318
306
326
338
319
312
333
341
317
322
347
354
329
339
362
365
342
357
378
376
358
378
396
378
355
367
370
345
328
342
343
311
302
320
323
292
289
302
299
274
286
305
299
276
293
311
300
282
303
321
304
291
311
320
301
295
314
319
295
299
319
322
295
301
323
323
302
318
337
327
306
325
343
327
316
336
345
322
317
341
349
323
324
345
346
320
328
349
346
322
336
354
346
323
342
359
345
329
351
367
348
339
364
373
347
343
365
371
344
348
369
367
340
356
379
379
361
378
399
395
378
393
403
380
367
385
391
362
356
377
382
354
357
380
381
352
351
359
363
373
454
570
670
680
556
370
270
288
351
369
335
319
339
346
320
323
343
346
320
331
351
342
317
330
349
342
321
339
356
340
326
348
362
343
335
359
369
346
348
373
379
357
367
391
389
365
379
402
398
375
391
407
392
367
379
385
359
341
357
361
336
329
347
350
325
328
347
346
320
330
346
342
318
331
347
338
319
338
347
329
317
337
345
324
319
341
350
326
329
352
354
327
333
350
345
319
333
352
342
320
335
348
332
316
333
344
327
321
342
349
328
335
367
380
361
369
391
390
369
385
403
399
380
397
413
400
383
403
418
402
392
413
425
408
405
424
425
403
412
427
421
390
392
403
391
359
368
382
368
348
368
382
365
349
365
366
342
359
431
528
619
702
690
516
320
294
354
381
356
356
366
356
336
354
370
355
342
362
374
354
346
365
373
348
345
366
371
347
354
378
376
350
361
381
377
354
371
388
377
366
387
400
386
379
399
409
388
384
405
409
380
378
390
382
350
353
368
358
331
342
356
343
323
341
354
338
327
346
356
335
330
353
359
336
339
357
356
332
340
357
353
331
344
361
350
329
345
360
344
330
349
361
342
332
350
358
340
343
363
366
342
349
370
366
339
351
367
361
342
358
370
354
340
359
368
349
341
362
369
345
342
363
367
340
345
367
366
341
352
371
365
346
366
389
382
362
381
398
382
366
382
386
359
347
361
360
334
335
355
355
330
339
358
352
321
329
357
386
435
552
678
686
527
338
279
302
334
354
349
319
316
338
343
321
328
347
345
320
332
348
342
323
337
352
341
328
346
354
336
329
349
358
340
340
361
369
349
355
378
384
365
380
401
398
378
394
411
399
379
394
404
381
364
375
374
344
332
347
348
321
321
338
337
315
325
342
337
314
327
344
338
321
338
352
338
326
343
356
339
335
357
363
340
340
360
363
338
343
362
357
333
341
356
349
328
341
355
343
327
341
351
334
324
342
352
331
327
344
347
326
332
349
347
323
335
351
343
323
339
353
340
322
338
352
338
327
346
355
335
330
348
354
333
337
358
363
342
355
379
377
354
369
384
369
348
360
371
353
337
347
352
336
331
347
352
328
328
349
349
316
326
376
437
512
632
699
592
358
273
320
351
338
340
343
327
322
341
352
330
328
346
350
329
336
354
356
335
344
360
355
335
349
365
357
345
365
377
363
357
377
389
374
372
393
403
384
390
413
417
395
407
424
418
395
403
410
391
366
373
378
358
342
353
358
336
328
346
354
333
333
351
356
335
342
358
353
331
343
358
350
335
350
363
350
334
350
362
345
334
352
361
340
338
358
372
358
367
387
390
370
382
402
400
382
395
405
391
373
389
399
378
359
368
375
357
351
363
366
343
343
358
359
335
338
350
349
331
341
352
340
323
335
346
328
315
330
343
329
325
343
350
328
331
357
362
336
338
348
342
320
324
330
321
307
322
336
324
310
326
337
318
300
322
365
409
505
635
695
567
363
269
288
315
336
340
325
306
319
331
319
306
325
337
320
313
334
343
325
323
341
347
329
334
352
353
333
346
365
364
348
365
379
372
360
380
395
383
376
397
410
392
391
412
417
395
397
408
402
374
375
386
378
353
359
368
357
337
349
362
349
336
348
356
336
331
349
355
332
327
341
344
320
326
344
344
323
334
350
341
323
341
354
341
325
342
353
337
327
341
346
323
319
335
339
318
322
337
333
310
318
332
328
309
324
340
332
315
328
342
329
321
338
349
334
331
348
352
330
330
343
343
320
325
344
343
325
342
361
354
342
364
374
357
347
366
379
358
346
353
357
337
337
354
357
334
340
356
348
319
340
393
455
538
668
701
589
369
286
327
357
359
364
365
346
346
368
374
355
363
380
378
358
371
390
384
366
382
397
386
371
386
396
382
373
391
398
381
379
400
410
393
398
420
426
409
418
434
431
413
426
439
427
405
410
414
389
364
368
366
338
325
333
333
310
310
326
327
307
316
333
329
309
323
338
330
313
328
341
330
319
335
346
332
327
345
354
338
338
355
360
340
346
362
361
343
356
369
363
345
358
372
363
350
370
379
364
357
373
381
366
363
378
382
360
362
379
379
358
367
383
377
359
374
387
375
361
376
385
367
357
374
383
365
357
374
381
357
356
374
376
357
368
388
385
360
367
385
379
355
362
366
347
331
342
340
316
309
326
329
307
305
321
322
296
292
310
335
372
472
598
668
577
377
263
271
308
338
340
318
313
334
344
328
328
348
355
337
343
361
363
347
357
374
372
358
373
389
381
369
386
399
387
382
402
412
396
395
416
425
407
413
433
436
417
427
444
441
421
430
439
425
400
404
408
385
368
378
383
363
354
369
371
348
349
368
369
348
355
371
369
349
359
372
365
349
364
375
361
348
362
371
355
350
368
377
356
357
373
375
351
355
371
370
348
355
366
358
341
353
366
353
338
355
367
351
339
354
363
344
344
359
362
339
342
358
359
335
342
357
352
331
343
356
345
329
343
355
341
330
345
354
337
334
348
353
332
335
357
364
349
355
367
370
358
365
374
364
344
355
362
341
325
342
352
333
328
346
351
332
331
340
339
340
398
497
601
678
654
469
296
264
327
366
346
320
333
345
329
319
335
344
325
322
339
345
325
329
346
347
327
336
352
347
328
344
359
349
332
347
361
349
342
362
373
356
354
375
386
367
372
390
393
373
381
395
387
361
369
377
361
336
346
356
339
323
339
349
326
318
338
343
322
322
338
339
318
324
341
338
316
327
342
335
316
331
343
332
319
332
340
322
316
333
338
316
314
333
339
318
323
341
342
321
331
347
340
320
333
346
334
320
336
345
326
316
335
343
320
317
338
346
324
328
346
343
319
329
347
343
324
338
353
345
328
343
355
341
332
349
361
346
345
366
374
352
358
382
381
355
361
370
360
335
341
348
337
319
336
352
340
330
348
356
330
316
348
400
454
558
687
693
525
331
286
328
346
359
363
349
330
344
357
346
331
347
360
342
334
355
364
344
344
363
364
342
347
363
363
341
350
368
364
346
362
379
369
357
378
393
379
369
392
406
388
386
407
413
389
387
399
395
365
364
373
362
336
345
357
347
325
339
354
339
327
344
355
338
333
352
360
340
341
361
361
342
350
368
367
346
357
373
365
349
363
373
359
347
362
372
355
346
362
370
348
344
359
363
340
342
357
356
335
342
356
350
332
342
355
346
335
352
361
347
339
358
369
350
347
363
368
347
350
365
364
343
352
370
366
345
356
371
361
343
359
370
354
342
358
370
357
354
376
383
361
365
388
389
363
367
376
366
339
343
351
341
324
339
349
337
326
343
352
323
310
347
402
460
567
687
677
479
295
277
327
336
338
341
332
313
327
340
330
318
336
346
331
321
341
350
332
329
346
352
332
337
354
356
337
346
363
360
343
356
374
367
357
376
391
380
372
392
403
385
383
402
410
390
388
401
396
365
362
370
359
332
336
350
338
321
334
346
334
321
338
348
332
328
346
351
331
333
350
353
333
341
357
357
337
348
363
356
338
353
366
352
340
360
369
348
339
356
363
341
340
359
363
341
347
365
363
342
352
367
359
342
357
371
361
348
361
371
355
349
368
373
354
354
371
373
351
356
374
371
352
362
378
371
351
364
377
366
351
367
377
361
353
370
379
366
365
386
397
382
382
398
403
384
384
396
389
365
374
381
363
341
355
365
348
337
352
359
340
329
333
343
360
434
556
668
687
565
363
281
305
354
364
341
320
333
342
330
320
338
348
332
326
342
348
331
333
351
351
331
337
355
355
336
343
360
359
346
361
373
365
354
372
387
376
372
392
402
388
387
403
407
389
396
411
406
378
377
381
366
339
346
354
340
320
334
343
327
317
336
343
326
321
338
342
324
326
342
343
322
329
343
341
326
334
343
335
323
337
341
326
314
331
340
324
319
333
337
320
322
336
337
318
324
338
338
321
332
342
336
321
333
342
332
321
336
345
333
325
338
343
327
326
344
346
326
331
347
345
326
335
348
345
332
344
354
345
334
347
352
338
328
341
350
335
331
345
351
338
344
361
359
338
354
370
363
340
345
355
344
322
327
334
321
310
325
331
313
310
328
327
298
303
352
415
494
616
677
547
323
246
294
330
318
318
321
311
303
322
332
316
307
321
328
314
314
330
331
315
323
335
334
317
328
343
341
328
341
353
348
339
360
373
361
356
377
386
371
373
391
396
383
388
401
400
382
388
395
382
359
364
367
354
337
347
352
336
328
345
355
340
335
350
358
345
349
367
372
358
367
380
376
361
374
387
381
366
378
388
379
368
381
389
375
368
381
385
367
367
380
382
365
369
381
377
357
363
373
368
354
365
370
358
348
365
372
359
353
369
375
358
357
372
374
355
358
370
370
356
362
370
366
352
365
375
367
355
369
377
365
360
377
384
374
376
392
393
382
388
396
393
371
372
378
366
342
349
359
350
333
345
355
343
332
342
338
326
352
425
524
623
694
620
410
267
289
353
365
336
337
347
342
330
343
352
342
333
348
356
343
338
354
360
346
346
359
362
347
354
366
365
350
362
374
373
362
378
392
385
378
396
407
399
396
413
420
407
407
422
423
403
399
405
397
371
370
375
365
346
351
357
348
334
346
355
344
335
350
357
342
338
354
362
348
349
362
361
342
349
363
361
343
352
363
356
342
352
361
352
342
355
361
349
344
357
360
341
340
353
352
334
339
353
351
336
346
358
350
334
345
354
343
332
344
350
337
329
339
340
322
319
330
329
311
315
326
324
305
314
327
323
308
317
325
316
305
320
332
325
323
341
347
332
337
357
357
341
340
348
343
320
318
322
318
302
311
322
318
309
323
328
305
293
332
397
478
586
683
614
389
256
285
339
338
333
335
331
317
328
341
337
327
343
356
350
340
356
364
353
351
365
372
357
356
370
374
359
365
380
381
369
380
394
394
383
399
413
406
397
411
422
413
407
422
428
413
411
422
418
395
393
398
389
365
366
375
369
350
358
365
354
340
355
363
354
348
362
366
353
351
367
370
353
357
370
368
350
357
367
363
341
353
367
359
342
355
364
353
343
359
363
348
347
365
368
352
353
367
366
350
357
369
364
348
357
366
363
349
360
369
363
352
366
371
358
354
369
374
358
356
370
371
353
358
369
371
355
362
373
370
355
368
379
374
366
388
399
385
381
399
401
383
378
388
385
361
354
362
361
344
353
365
361
346
357
367
349
334
368
427
502
600
699
654
440
289
306
361
363
351
353
350
333
340
354
353
336
345
356
349
335
349
361
351
341
356
363
350
345
361
367
354
355
371
372
358
365
381
381
367
377
394
393
381
394
405
396
387
402
411
397
389
398
397
375
365
368
365
346
345
354
349
330
337
348
343
330
342
350
342
327
338
347
339
330
342
348
336
333
348
351
334
335
347
347
332
339
352
350
333
341
351
345
333
344
350
339
332
344
350
334
326
338
343
326
323
335
336
318
324
336
334
317
328
340
333
318
329
336
329
320
333
339
328
321
334
339
324
323
337
344
334
343
354
347
334
350
359
350
335
345
351
337
316
323
329
318
309
322
326
313
310
322
317
292
309
366
440
527
644
664
496
296
249
299
330
321
326
329
318
311
326
333
321
320
335
340
325
327
346
351
334
338
349
349
334
346
359
353
340
354
367
360
354
372
382
372
370
388
397
385
386
400
402
388
394
408
405
385
388
395
384
362
366
367
349
332
342
346
330
321
338
345
330
328
339
339
323
328
340
339
324
333
345
341
324
334
344
338
325
338
348
337
329
344
351
338
334
349
352
336
338
352
351
335
341
352
350
331
340
348
342
328
341
350
338
326
338
343
328
322
336
338
323
324
338
341
324
332
349
346
329
345
364
359
341
350
355
342
323
326
324
309
304
317
318
301
300
316
316
294
286
303
331
374
478
601
659
538
338
240
258
295
319
314
292
282
299
307
293
291
307
312
296
300
317
321
308
318
333
335
324
336
348
339
329
345
353
345
340
357
368
357
354
369
376
366
375
393
398
384
394
411
410
394
401
407
395
373
376
376
358
342
350
352
336
328
341
344
328
328
343
346
332
336
348
347
330
340
352
349
341
356
364
352
339
352
358
345
337
350
354
337
334
346
346
330
334
348
352
341
357
372
369
354
368
378
367
350
360
366
353
346
361
365
350
346
358
358
344
352
372
378
364
368
380
383
371
379
385
370
352
359
360
339
325
340
345
329
323
335
339
327
328
334
328
323
370
457
559
647
661
494
305
266
331
366
349
326
336
344
330
322
338
344
329
329
342
344
329
333
347
347
332
341
353
348
334
348
359
352
340
357
367
357
353
371
381
368
370
389
396
384
392
405
406
393
403
415
408
384
388
391
374
354
361
364
348
335
346
351
339
337
352
357
341
344
360
361
345
353
365
363
348
361
373
368
355
372
382
371
361
376
383
367
361
375
378
361
358
371
372
357
362
373
369
353
361
371
366
351
365
375
372
367
383
388
379
381
397
400
381
372
380
372
344
343
356
351
333
342
353
347
332
343
353
339
325
352
386
423
509
637
667
494
303
277
332
350
349
351
344
326
332
343
340
326
336
346
339
330
346
355
346
337
352
359
345
343
357
362
350
352
367
371
358
368
385
384
371
386
401
400
388
404
414
404
393
408
418
403
395
402
396
370
359
365
359
335
334
342
337
320
329
339
331
317
330
340
333
324
337
346
335
327
341
345
329
327
340
341
325
332
344
344
328
337
349
343
328
343
353
345
332
345
353
341
334
354
367
357
360
376
382
374
381
392
386
361
362
364
349
326
335
342
333
322
339
353
345
339
353
358
341
343
376
423
495
610
673
540
321
264
324
359
340
334
338
330
317
333
346
337
329
344
352
340
338
354
357
342
345
361
364
347
355
369
368
356
367
381
379
368
385
397
393
383
400
415
413
412
428
432
414
413
426
424
399
398
401
391
367
367
370
361
343
353
358
346
336
351
357
346
346
367
375
365
363
374
372
353
355
371
372
352
356
368
363
345
355
364
355
341
355
363
349
339
355
358
342
340
354
356
339
345
365
368
351
355
371
378
363
370
379
368
347
350
348
331
318
329
334
320
315
329
336
319
317
324
315
302
340
419
512
610
669
550
342
232
272
331
336
314
318
324
310
305
324
330
314
312
329
334
316
320
334
335
317
326
339
336
322
336
349
341
329
345
354
343
340
358
366
352
352
373
380
366
370
385
387
368
375
386
381
359
362
367
355
336
343
349
336
326
340
342
322
319
339
343
323
324
342
344
323
329
347
349
334
345
359
353
337
352
364
353
339
355
366
348
336
354
364
343
338
352
355
337
340
356
356
333
341
364
366
351
368
383
376
365
382
390
370
352
365
366
334
322
339
343
318
318
335
335
309
314
335
333
305
327
377
436
524
661
702
610
391
295
325
358
367
375
372
346
347
369
376
354
360
377
376
355
369
384
375
355
371
387
374
361
381
397
381
373
394
406
388
388
410
417
396
404
425
426
404
417
436
429
406
418
432
416
396
407
411
387
370
387
394
367
363
382
384
357
359
377
378
356
367
384
377
355
373
391
380
361
379
392
374
362
381
389
367
364
383
386
360
361
381
383
355
362
379
374
352
364
379
366
345
363
378
358
344
364
374
350
341
360
366
344
351
378
383
353
362
388
388
364
377
387
368
342
352
358
336
319
339
349
327
321
343
351
326
321
336
345
341
394
502
611
646
551
363
265
282
344
366
336
310
330
345
324
315
336
345
318
315
336
342
314
318
339
337
310
324
345
335
312
332
351
338
323
346
360
339
331
356
367
345
346
371
378
352
357
381
382
354
366
383
368
334
343
352
331
305
322
333
310
295
316
326
300
297
321
329
301
305
329
331
304
317
341
338
312
329
348
337
315
336
354
336
319
342
354
325
313
340
350
317
317
342
345
314
323
347
341
312
329
351
339
312
330
347
330
311
336
353
324
314
343
354
321
321
349
354
322
330
355
352
320
337
360
350
324
347
366
349
331
356
367
340
328
355
370
344
345
379
388
356
368
401
397
363
375
395
381
347
363
376
354
330
356
373
346
332
361
376
343
328
353
383
403
495
631
700
613
416
309
316
332
362
371
345
319
348
367
343
326
354
370
343
336
366
375
342
345
375
376
340
353
381
378
350
371
397
385
361
388
410
391
376
407
423
396
390
424
438
407
407
435
439
404
413
437
424
382
391
407
388
355
371
388
368
348
373
387
360
348
378
390
355
352
381
383
345
351
378
373
339
356
379
366
337
360
382
360
335
362
379
352
338
365
376
344
342
373
380
346
351
377
375
337
353
378
368
335
355
377
357
333
357
374
348
331
358
370
340
331
358
368
336
337
366
368
334
347
373
367
334
355
377
362
335
362
380
356
339
368
383
355
348
383
399
369
365
391
396
363
369
394
385
347
360
380
357
324
347
367
344
324
352
369
341
325
343
352
342
395
516
637
682
606
421
290
271
336
375
353
311
331
355
338
313
338
356
332
317
347
360
330
326
355
362
328
330
358
357
325
339
364
359
330
352
375
361
338
367
390
371
357
386
402
374
370
402
409
374
378
405
403
362
366
385
373
337
351
368
351
325
345
360
338
320
344
355
328
320
345
353
323
324
349
347
316
326
347
339
306
322
345
332
305
325
345
328
307
330
343
318
307
333
342
313
312
339
343
314
319
343
342
313
326
350
341
311
330
347
331
311
334
349
327
313
337
346
317
314
342
349
318
322
346
346
318
334
364
362
334
347
370
364
341
356
367
345
329
347
350
316
312
338
339
306
311
340
343
313
314
324
324
331
414
537
641
679
585
390
255
257
331
360
324
304
328
338
312
311
333
336
309
319
343
339
311
327
346
332
308
330
347
331
312
338
353
333
327
355
365
339
341
370
378
352
365
392
392
364
381
404
395
371
391
404
379
352
368
378
347
326
346
354
325
318
340
342
309
315
342
342
313
327
349
342
314
333
353
339
316
343
358
338
323
345
359
335
329
353
361
334
336
358
356
322
335
359
351
320
336
356
342
320
342
357
335
316
340
352
327
322
347
353
323
324
348
349
317
328
351
341
311
328
350
340
315
338
355
335
320
350
370
349
338
365
381
353
349
371
371
334
338
358
348
314
329
349
338
310
331
351
331
305
320
334
333
378
501
633
691
624
434
285
253
315
364
352
308
320
345
338
311
331
353
340
320
345
363
340
325
352
363
335
332
360
367
336
339
368
372
344
359
383
377
349
374
398
385
364
391
412
391
376
403
417
388
382
406
408
371
366
385
379
340
346
367
359
326
344
365
351
323
347
366
344
324
354
367
339
330
360
370
339
340
367
369
334
344
372
367
334
350
373
360
330
353
373
352
330
357
373
348
337
365
376
343
342
372
378
344
349
377
373
338
354
378
368
335
356
377
358
335
361
380
355
339
366
379
350
348
376
380
345
349
377
377
345
360
390
384
357
386
413
392
367
398
413
381
361
387
397
361
345
363
366
331
334
361
365
332
345
370
355
314
347
414
476
555
688
697
533
314
289
352
358
344
359
362
330
332
362
365
330
341
370
366
333
349
375
364
337
360
380
362
342
370
388
361
351
381
394
363
362
395
402
368
380
413
414
383
401
429
421
391
416
438
417
390
410
419
385
363
384
389
352
343
368
372
336
340
367
367
334
349
376
366
334
353
375
358
332
356
374
351
334
360
373
344
337
366
373
340
342
370
368
334
346
370
363
332
350
372
358
333
356
371
349
330
356
370
344
334
361
372
340
340
368
370
337
346
371
367
336
351
373
361
331
355
375
358
336
361
376
352
339
366
376
347
345
371
375
341
348
376
380
352
369
393
381
356
376
391
369
340
360
374
345
321
340
348
314
303
326
328
294
294
311
294
259
296
375
458
539
634
581
358
219
267
334
322
296
314
327
304
300
327
335
309
314
339
342
312
325
350
346
318
336
359
350
329
351
369
352
338
366
380
357
350
377
389
362
366
396
400
373
387
415
414
385
400
421
410
383
398
407
383
357
373
380
351
336
357
366
338
333
355
358
328
333
356
354
325
340
362
355
329
349
370
355
332
353
371
351
338
361
372
344
339
366
375
344
345
368
365
334
346
367
359
332
348
365
350
328
348
361
338
322
347
359
333
327
351
356
325
327
350
352
321
331
353
348
321
339
361
348
326
343
354
329
304
322
331
305
299
328
338
311
314
340
341
311
320
343
340
312
331
355
347
328
354
372
359
349
375
383
357
342
363
367
332
323
346
348
317
324
351
349
322
337
353
335
318
371
453
534
630
699
600
367
258
314
369
345
327
344
349
322
329
352
351
320
334
358
355
328
347
367
354
334
358
374
353
340
366
378
352
348
375
384
357
361
386
389
362
377
401
396
372
391
410
396
371
393
411
390
369
387
390
355
337
356
360
325
321
341
341
310
318
341
336
306
322
344
333
308
329
349
331
313
337
352
329
322
349
359
332
329
352
356
324
331
353
350
319
333
354
341
309
328
344
325
303
325
337
312
302
328
339
308
302
329
335
304
308
329
327
294
308
334
327
298
317
337
324
303
326
342
320
308
334
346
318
313
340
347
319
323
350
353
324
336
358
352
323
341
363
354
337
367
390
368
353
385
403
371
363
386
390
355
349
362
357
327
337
358
352
326
346
368
353
318
336
373
404
471
606
701
665
473
323
308
332
361
381
371
334
342
369
366
332
343
364
355
330
352
371
351
329
354
370
349
340
366
375
345
345
374
383
353
362
390
391
361
377
401
392
363
386
410
395
375
402
418
390
372
395
398
362
350
369
367
330
331
352
346
310
322
345
336
307
333
357
338
309
331
353
334
320
349
360
333
330
358
365
333
334
360
361
325
333
357
353
324
345
361
345
321
346
365
343
326
351
363
334
325
352
361
328
329
355
355
322
332
354
347
315
333
354
342
317
340
356
334
314
343
356
327
321
353
361
328
328
354
358
321
325
352
350
317
334
356
341
312
334
353
338
324
353
374
353
342
368
381
354
352
379
378
339
341
363
354
318
332
356
346
319
342
362
342
316
333
355
361
411
544
674
696
601
415
301
282
335
379
367
320
330
357
351
322
341
362
347
324
349
362
330
311
341
360
336
330
356
361
329
336
365
368
337
353
382
376
346
368
394
383
359
387
405
382
366
395
407
375
362
390
398
356
348
369
367
331
339
361
353
317
336
358
344
317
341
360
340
320
347
364
339
325
350
362
333
336
365
363
328
338
359
353
324
340
362
352
327
352
370
348
327
355
370
341
330
359
368
337
335
361
363
331
344
371
363
325
342
369
354
320
344
365
346
325
355
368
341
330
361
374
342
337
367
377
342
340
367
370
339
346
365
358
334
362
389
378
357
390
419
405
396
425
439
416
416
442
444
406
405
430
428
384
391
413
403
370
391
415
400
372
393
401
373
375
457
561
645
702
697
542
334
315
391
412
367
363
385
381
349
365
387
374
346
371
390
367
345
371
388
364
354
380
390
358
358
387
392
360
370
397
395
366
383
407
399
376
401
424
409
391
418
435
410
397
426
437
404
395
416
410
365
362
383
373
334
345
365
350
321
342
361
341
318
343
359
335
321
348
355
325
321
349
352
317
324
351
349
314
327
351
342
311
332
352
336
313
339
357
333
315
342
353
325
318
345
351
317
321
349
348
312
324
350
339
307
326
349
334
306
331
349
327
308
337
349
319
313
341
348
314
313
342
342
309
321
348
340
308
330
352
338
309
333
350
329
311
338
352
329
325
360
372
338
340
374
377
340
345
366
357
319
329
346
331
303
326
345
322
303
332
346
311
289
328
379
420
520
656
679
489
296
273
320
319
329
340
326
299
325
346
329
306
332
350
326
314
343
356
327
324
353
360
328
333
360
359
328
347
374
369
342
366
388
376
354
384
406
385
372
402
417
391
386
419
425
391
393
414
405
361
367
382
366
330
345
361
340
313
340
358
334
315
345
358
328
318
349
359
325
327
357
359
326
339
364
359
327
348
371
357
329
353
371
350
330
356
369
338
326
357
365
332
331
359
362
327
336
363
357
322
339
364
352
324
346
366
346
324
352
367
339
327
358
369
334
332
365
369
334
339
369
366
328
344
371
360
328
351
371
352
328
357
374
347
331
363
379
347
346
382
397
360
362
397
397
358
368
392
381
344
359
373
351
323
349
367
343
324
354
368
333
313
345
381
405
503
641
698
581
379
294
314
327
355
366
341
310
340
362
339
322
351
368
339
331
360
368
336
338
369
373
337
348
378
376
343
361
386
375
348
372
395
378
360
390
408
383
373
403
417
388
389
419
421
387
395
419
411
367
372
390
374
339
356
371
349
324
351
367
341
326
355
365
333
332
361
367
333
339
365
363
330
343
366
357
330
354
374
356
331
356
374
349
334
364
376
343
337
365
371
335
339
366
364
331
344
369
360
327
348
369
352
327
352
369
347
329
354
366
340
332
359
366
334
336
362
363
331
342
366
359
328
345
367
353
329
352
370
348
328
351
365
344
335
360
370
342
344
373
379
354
367
388
382
358
375
391
377
347
365
379
353
326
346
359
335
325
349
357
329
327
344
339
323
369
461
559
638
671
542
344
246
297
352
341
313
330
340
317
302
328
340
316
311
333
338
310
315
339
339
311
325
346
340
315
335
352
338
320
346
361
341
332
360
375
353
352
379
387
360
367
393
392
362
374
395
387
358
369
380
359
333
350
362
339
320
341
350
324
318
342
346
319
325
352
353
323
333
356
353
328
345
362
349
327
349
365
347
331
356
370
343
333
358
366
337
337
361
361
331
339
360
354
326
341
362
350
325
344
361
344
324
347
358
335
324
347
354
327
327
351
353
321
327
351
349
321
335
357
348
323
342
359
344
325
347
360
340
331
360
372
351
350
373
382
354
356
377
371
338
347
362
349
322
340
356
340
319
342
357
336
323
336
342
338
385
495
612
679
645
475
310
260
328
379
364
324
337
356
343
322
344
360
340
326
350
363
340
336
362
368
339
344
369
371
343
354
377
373
347
367
388
377
357
383
403
387
370
398
413
392
385
414
422
394
396
418
415
380
385
400
389
355
365
379
365
338
353
369
351
335
357
368
343
333
358
367
340
340
366
372
341
349
370
366
340
355
373
362
337
358
374
356
338
361
371
347
336
363
372
345
342
366
368
337
344
367
365
335
348
369
360
332
350
368
352
330
353
369
348
338
362
372
346
344
369
374
344
348
369
366
337
350
371
364
337
355
373
358
337
360
375
352
337
360
374
352
352
386
395
364
363
390
391
355
365
384
373
343
356
369
351
326
346
360
343
328
350
363
334
315
344
381
414
510
646
700
579
376
292
317
336
358
365
342
317
339
355
339
321
346
360
336
328
356
363
335
336
360
363
337
345
370
367
338
355
377
370
348
371
388
371
357
386
401
383
376
403
412
385
385
411
416
386
392
412
404
368
373
386
368
334
348
364
345
322
345
357
333
319
345
357
331
327
352
357
326
332
355
354
325
340
361
353
325
343
360
342
320
343
359
337
321
345
354
328
323
348
353
323
326
349
351
321
335
356
348
318
335
354
340
318
339
356
335
319
341
353
327
321
346
353
327
329
352
352
323
333
354
351
324
342
364
351
325
348
365
349
334
359
375
358
354
378
380
348
348
371
375
343
348
369
363
329
338
356
345
321
342
359
341
320
336
341
332
364
462
571
654
652
502
320
251
310
364
354
312
321
341
336
313
333
349
334
317
342
355
334
325
353
364
337
333
357
362
334
342
369
369
340
356
381
375
351
374
397
382
363
391
408
387
374
401
414
390
386
409
411
377
375
392
384
346
349
366
356
326
340
354
338
316
339
351
330
314
340
352
327
320
347
351
320
324
352
354
319
326
352
349
319
334
354
343
320
341
355
336
319
341
352
328
322
348
350
319
321
347
349
318
328
350
343
314
330
351
339
313
334
351
335
319
342
354
331
322
347
354
328
327
350
353
325
333
355
352
324
343
369
365
339
350
367
358
340
364
372
346
334
358
361
331
328
352
357
328
333
356
349
309
324
375
427
496
625
701
622
398
284
300
329
338
355
351
320
318
344
351
322
325
349
350
322
336
357
351
325
344
364
351
331
355
372
355
341
367
382
358
354
384
391
361
367
394
399
371
385
409
406
377
394
416
403
379
395
406
381
356
374
378
345
334
357
362
331
328
352
352
320
329
355
352
322
339
361
351
327
348
363
345
329
352
364
342
333
357
363
333
333
357
359
327
334
358
355
326
339
360
348
321
341
362
343
320
345
358
333
322
350
359
331
329
353
359
326
332
358
354
321
334
358
350
323
344
366
355
340
369
380
357
347
374
384
347
334
364
371
334
330
355
354
321
331
357
350
321
335
346
339
352
443
560
652
685
582
386
264
286
359
376
333
330
356
357
321
332
358
353
322
342
366
353
327
351
371
350
335
365
380
351
345
374
382
349
354
386
390
357
368
397
395
367
388
413
401
375
400
423
406
384
408
420
387
369
391
391
352
343
368
368
330
335
357
352
317
333
358
350
320
344
362
342
320
348
364
340
326
356
366
335
332
361
364
326
333
363
359
324
341
365
355
323
344
366
349
326
351
368
341
326
357
366
334
330
356
364
330
334
362
360
329
342
366
358
328
348
367
350
326
352
370
348
333
365
384
361
358
386
396
367
366
391
390
353
362
378
361
321
341
364
346
317
342
363
340
321
343
346
322
343
432
530
606
674
603
388
246
288
364
365
318
327
350
340
313
338
359
339
320
347
362
337
327
355
366
334
338
368
372
337
348
378
375
342
361
388
378
352
375
400
383
366
397
417
393
385
414
426
397
396
424
426
384
382
401
391
347
355
375
361
327
343
360
339
315
342
359
331
315
346
358
326
321
350
358
322
327
355
354
319
333
357
349
318
339
361
344
320
344
361
337
322
350
363
332
325
355
361
328
333
360
358
321
332
359
352
320
340
360
345
321
345
362
337
321
351
365
335
327
356
364
332
335
364
365
329
340
366
360
326
345
370
353
327
353
375
359
348
383
396
357
346
378
388
353
346
370
371
336
342
364
356
325
344
367
356
328
346
355
338
345
429
532
611
675
617
413
268
293
365
371
321
323
347
344
310
329
354
344
315
339
361
343
321
351
370
343
330
358
368
336
335
365
371
339
350
378
376
344
364
390
381
354
379
402
388
366
393
413
388
372
399
409
374
362
384
381
339
335
358
352
313
324
347
338
307
327
350
332
307
336
355
331
317
347
358
326
321
353
364
329
330
359
360
324
339
365
358
325
344
368
351
323
351
372
349
328
357
370
340
333
362
371
339
341
367
366
332
344
370
361
327
346
368
352
323
348
368
345
324
351
368
341
330
363
370
335
335
365
372
345
358
386
376
335
358
386
376
346
361
377
353
329
350
362
334
324
355
366
334
331
352
349
325
371
467
566
643
683
557
353
249
305
368
353
319
340
353
330
316
345
356
326
324
352
358
326
334
360
356
321
340
368
357
325
349
369
352
331
362
382
357
342
374
391
365
360
390
399
369
374
403
403
371
386
411
398
363
379
395
372
338
360
374
345
324
351
365
333
322
350
359
326
330
358
359
324
336
363
359
326
347
368
352
326
350
367
345
327
357
372
340
331
360
367
330
332
360
362
326
335
361
358
324
342
365
351
323
346
366
343
323
353
368
339
328
354
364
331
332
360
361
325
334
363
360
324
340
367
361
338
366
387
359
333
365
384
358
342
366
374
341
333
355
354
317
323
350
347
311
322
334
318
307
376
476
568
653
670
499
284
228
304
350
319
302
324
329
296
302
327
326
295
309
336
329
300
324
345
328
305
333
353
329
316
344
357
332
327
356
365
335
342
371
374
344
359
385
378
352
374
399
386
361
385
401
379
357
375
377
342
332
357
361
328
329
350
348
319
332
355
347
318
340
363
348
323
348
368
346
330
356
369
342
334
362
369
339
340
365
367
334
341
364
360
328
344
365
354
328
351
370
351
329
353
369
342
331
358
367
334
333
358
360
330
339
364
362
333
347
367
355
329
350
369
352
333
359
372
348
342
373
387
361
357
386
391
359
364
383
379
348
360
375
363
335
355
373
357
335
360
374
344
324
367
423
469
565
695
696
525
326
296
343
348
359
368
356
328
349
367
350
329
354
372
352
335
361
373
344
340
364
369
338
342
368
370
343
354
375
371
345
363
385
377
355
377
395
381
367
394
409
384
378
407
416
386
382
399
392
353
354
369
357
324
338
354
340
315
336
352
333
314
337
345
320
311
333
340
312
313
338
340
309
316
340
338
309
324
344
332
305
325
342
326
306
330
344
321
309
334
343
316
314
336
340
312
320
342
339
310
323
342
333
309
329
344
329
310
333
345
324
314
341
351
321
318
345
349
320
325
347
347
319
333
353
344
316
336
353
338
319
343
355
334
322
346
356
336
340
371
374
335
337
365
365
336
343
358
350
324
337
352
338
315
339
355
336
322
343
344
321
342
419
510
589
674
644
439
268
288
358
365
323
331
349
339
316
337
354
339
326
349
362
339
333
359
367
342
347
370
371
341
352
376
373
347
364
383
375
351
374
395
382
366
395
412
390
383
412
422
396
396
421
423
388
390
405
394
356
363
376
359
329
348
362
343
323
348
363
339
324
347
355
328
325
349
354
323
329
355
353
323
339
362
354
327
350
370
352
329
354
369
344
330
357
366
336
333
360
363
329
337
364
364
330
343
367
357
327
346
365
348
328
354
366
344
330
358
369
344
339
365
369
339
341
365
366
336
349
373
367
338
360
382
366
343
369
387
364
347
373
387
366
368
403
411
373
369
396
396
365
375
392
384
352
366
378
362
336
361
380
360
342
367
375
338
338
400
469
534
644
700
605
366
281
340
377
349
353
366
352
328
351
368
349
329
355
370
345
335
364
373
341
340
368
373
339
345
372
369
336
352
379
371
345
367
389
372
351
381
400
377
366
393
403
376
376
404
405
369
371
392
384
344
350
365
350
318
337
353
331
302
327
343
319
304
331
343
314
309
338
346
312
316
342
342
311
325
348
341
312
332
352
336
309
334
349
325
308
338
351
320
312
340
350
319
319
345
344
310
323
347
340
310
331
352
337
307
328
348
328
308
335
349
319
310
338
346
312
313
341
341
306
317
345
340
305
323
347
332
304
331
355
339
325
355
367
338
333
361
366
336
334
359
360
318
321
342
333
300
321
347
335
303
326
342
313
293
353
431
505
608
690
586
349
241
290
339
319
321
340
334
302
321
348
337
308
334
358
336
308
337
358
336
323
356
368
337
335
368
374
339
345
374
376
342
358
388
381
353
378
404
390
368
397
417
391
376
407
420
389
379
403
403
362
364
388
380
339
353
376
364
330
352
373
354
327
355
373
349
333
365
379
347
339
369
377
344
345
371
369
333
349
375
366
331
350
374
357
327
356
375
350
328
357
372
341
329
362
370
332
333
363
365
329
341
369
360
326
346
372
357
325
351
373
351
327
358
375
345
332
363
374
339
340
371
375
341
356
394
395
356
374
404
391
353
377
397
373
345
368
376
342
327
359
371
336
335
366
368
324
320
353
377
394
502
643
700
632
455
319
288
313
369
378
338
319
350
362
327
322
355
359
322
330
361
359
323
339
369
361
327
351
375
355
330
361
383
355
338
372
387
354
348
384
396
361
367
400
401
364
379
407
400
365
386
405
382
346
366
379
347
322
347
359
325
315
348
353
315
316
345
344
306
318
346
342
309
328
351
334
303
331
352
329
306
336
352
322
311
341
350
313
311
341
342
301
309
337
329
292
311
334
317
284
311
333
309
283
312
329
300
288
319
328
293
291
322
327
290
298
329
325
290
308
336
325
293
320
345
322
297
330
352
329
319
357
371
335
333
369
370
329
337
364
356
315
327
346
332
296
319
343
323
298
329
348
312
284
330
385
426
523
665
685
493
296
271
315
313
324
339
323
289
316
343
326
298
328
346
320
302
336
350
318
311
346
357
320
324
358
361
325
341
373
367
333
356
386
372
344
378
404
381
361
397
416
387
379
412
424
387
387
416
410
362
365
389
378
336
353
377
362
331
356
379
354
336
374
397
373
365
403
419
387
389
424
430
393
404
437
432
395
415
443
431
400
426
449
426
401
430
445
415
402
437
448
412
406
438
445
408
416
447
444
404
420
446
436
402
427
451
427
400
430
447
416
399
429
442
407
401
432
435
396
401
431
429
390
404
431
421
385
409
437
416
389
424
450
429
411
436
449
419
406
435
442
400
400
428
421
375
384
411
399
362
386
410
395
363
382
393
380
402
505
622
691
688
554
371
297
346
407
402
348
352
382
376
339
360
386
369
339
369
390
365
342
373
390
358
348
382
392
352
351
385
390
351
361
394
390
356
379
409
398
364
395
421
400
377
409
427
398
384
417
425
381
371
396
394
348
349
374
365
322
337
360
345
311
336
360
338
311
342
361
330
311
342
355
318
314
348
353
312
319
347
344
305
319
346
335
299
322
345
325
297
325
345
316
295
326
334
297
290
324
329
288
289
320
319
278
293
324
313
275
299
325
307
276
304
325
299
281
315
331
296
287
322
334
296
295
325
327
288
300
330
324
286
311
342
329
304
339
362
333
313
350
365
329
316
346
351
310
304
330
328
287
298
331
325
288
310
336
310
269
309
373
423
504
648
672
476
273
256
313
308
304
326
326
285
296
329
327
289
307
338
323
289
317
342
321
295
327
348
322
307
339
351
317
314
351
357
321
331
366
366
329
348
384
376
343
371
396
378
352
383
400
370
352
382
388
345
331
357
358
314
317
348
344
303
318
347
338
301
325
351
331
301
330
350
322
303
336
351
314
308
342
349
309
314
346
347
308
322
353
345
309
332
357
339
309
339
364
336
314
345
361
329
320
352
358
325
330
361
362
324
335
363
354
317
341
367
347
316
347
370
345
323
353
369
338
324
358
369
337
338
371
379
342
352
387
388
346
363
389
371
332
353
367
337
312
345
362
330
313
345
360
324
313
338
354
357
440
578
689
676
544
367
276
277
345
376
344
309
340
362
333
316
350
364
329
327
358
363
326
334
365
364
325
338
368
359
325
349
376
358
333
364
387
362
345
381
397
367
362
400
408
369
374
407
407
369
384
408
392
348
365
383
361
327
350
367
337
314
346
359
324
316
350
358
321
323
355
358
318
331
360
353
317
336
363
349
320
349
369
344
322
354
371
341
329
360
371
333
334
365
368
330
338
368
363
327
345
371
358
326
352
376
352
327
356
373
341
327
360
372
336
332
363
369
331
340
368
364
327
346
373
361
329
358
382
357
329
358
378
353
343
379
391
355
350
389
398
356
360
387
381
337
348
368
354
319
342
365
345
318
347
367
336
310
340
379
401
486
628
700
629
429
303
300
316
353
371
349
310
334
361
345
316
344
365
338
319
353
369
337
330
363
370
332
337
371
372
334
349
380
375
342
365
389
373
346
377
401
380
361
396
416
384
375
409
418
381
383
411
405
358
363
383
367
326
345
366
347
313
340
361
335
312
343
362
330
316
348
358
321
320
352
355
317
324
355
354
318
337
362
348
317
345
368
345
320
349
368
340
323
354
369
332
329
362
365
326
332
361
355
320
340
367
352
317
342
364
344
317
348
366
336
320
354
365
327
322
357
363
324
329
360
360
322
338
367
357
324
346
371
352
324
355
374
346
328
358
370
338
332
367
381
349
358
390
389
355
373
395
380
341
359
383
361
322
345
366
339
318
350
368
336
325
357
355
315
341
424
509
577
676
666
461
271
294
370
370
328
343
360
337
316
349
367
333
322
356
367
331
332
365
369
332
342
373
369
332
355
384
371
341
368
394
373
352
387
407
379
369
407
423
388
389
423
430
394
406
436
431
392
404
423
400
359
375
391
365
336
362
377
346
330
361
373
336
331
362
368
330
337
368
364
328
346
373
362
328
353
378
360
333
361
380
350
333
364
379
343
338
371
376
336
341
372
370
331
346
370
358
324
347
370
350
321
351
371
343
324
355
369
335
329
361
368
329
333
364
362
321
336
365
357
320
342
369
351
322
351
371
342
321
353
368
333
323
356
364
327
329
359
359
319
333
365
361
329
358
385
366
337
373
396
366
338
364
378
342
323
347
352
314
313
344
346
308
320
351
339
290
316
377
423
486
625
697
567
333
268
318
330
321
342
346
306
306
341
342
304
314
347
345
310
328
354
341
308
335
359
336
311
341
361
335
322
354
369
338
339
374
382
349
358
392
393
356
374
405
394
360
386
411
393
365
389
402
367
342
366
372
331
321
349
352
312
316
346
343
308
325
352
341
304
328
356
339
308
337
358
333
312
344
359
326
319
351
359
323
328
359
357
318
331
361
353
316
339
365
347
314
342
362
335
313
346
361
327
315
349
359
319
321
355
355
316
329
359
350
314
334
359
345
315
342
361
336
315
345
361
329
318
351
363
326
326
359
361
325
340
371
364
332
360
392
377
349
384
404
378
352
379
390
356
336
363
369
330
329
361
366
329
336
366
356
314
348
420
488
566
692
693
523
313
286
342
350
337
357
363
330
327
356
361
326
335
363
358
324
345
374
363
330
356
379
360
335
365
382
356
343
376
390
358
354
389
399
364
373
404
402
368
389
421
412
377
402
426
405
374
399
412
376
352
377
384
345
337
365
369
331
332
360
359
323
336
362
353
320
344
370
354
327
356
377
352
332
361
375
344
336
368
377
341
343
371
372
336
349
374
366
333
354
378
363
332
357
374
350
331
362
375
343
331
361
370
336
335
365
367
331
342
368
361
326
348
372
357
324
348
369
347
327
355
368
339
329
359
366
332
331
361
365
332
346
380
379
342
360
389
379
345
367
383
360
336
363
370
337
321
351
362
328
327
358
362
323
320
345
365
387
497
634
698
621
441
307
284
309
358
368
333
316
346
359
328
324
355
361
327
334
363
362
327
345
374
365
333
358
382
365
340
369
387
365
349
382
395
366
364
397
406
374
381
412
413
380
399
427
418
385
405
423
400
368
391
400
367
342
366
373
341
333
359
363
329
333
361
361
325
336
363
356
322
345
368
353
327
353
367
343
326
357
369
339
330
361
367
332
334
363
363
328
340
364
356
324
346
366
348
321
349
367
344
322
349
364
336
326
354
362
330
331
359
357
321
334
360
355
322
342
365
351
322
347
366
346
327
357
371
342
329
361
371
339
337
367
370
335
345
373
369
334
351
376
364
335
363
387
371
355
384
396
373
365
392
396
359
352
377
376
332
334
358
352
316
332
356
348
319
340
349
328
330
413
513
595
665
644
452
272
271
353
373
327
324
350
349
315
330
356
345
314
339
362
344
321
351
367
343
327
359
372
341
335
367
376
345
350
380
382
349
367
395
389
358
384
409
396
372
403
422
399
381
413
426
396
380
403
400
357
352
374
370
332
341
363
353
319
336
359
344
317
343
360
336
316
347
359
331
319
350
359
325
324
355
357
323
334
359
353
320
340
365
352
321
345
362
342
320
351
364
336
323
353
361
327
322
351
355
322
328
356
350
314
331
353
341
311
337
356
335
310
341
356
326
311
341
351
321
319
350
353
319
326
353
351
315
331
356
345
312
336
358
341
315
344
363
341
328
362
378
347
337
370
379
343
345
368
363
323
330
347
335
303
324
343
326
300
327
349
324
292
320
359
387
468
608
693
596
387
284
301
313
335
350
333
297
319
343
329
300
328
350
327
307
337
351
320
309
340
350
318
320
351
352
318
330
359
356
326
347
374
364
336
363
388
372
351
383
403
376
364
399
413
380
378
406
405
360
361
382
372
330
343
363
346
312
333
353
336
311
340
356
331
318
348
357
324
325
356
360
322
330
360
354
317
334
362
350
316
339
360
340
316
344
364
336
321
352
363
328
320
349
356
321
325
353
352
313
326
353
342
310
334
356
338
311
339
357
331
314
346
360
329
322
353
360
321
324
355
357
321
332
359
355
323
342
366
351
325
352
371
350
336
369
388
362
350
383
401
370
366
391
389
350
355
373
361
326
345
370
357
325
351
375
354
321
339
366
376
435
573
692
682
544
376
297
289
341
377
360
316
333
355
341
314
341
362
340
317
349
366
340
327
356
368
336
335
368
374
342
351
380
377
344
363
388
378
348
374
401
384
360
389
409
386
375
407
415
381
379
409
411
370
367
385
378
340
351
373
361
327
347
367
350
323
350
367
343
327
357
370
342
337
367
374
338
342
371
372
338
350
375
368
335
355
377
360
334
357
372
350
331
358
371
341
333
362
366
328
329
360
361
324
334
360
351
316
335
355
340
316
340
357
332
312
344
359
330
320
350
358
326
325
354
357
324
333
356
353
325
347
375
368
341
363
385
369
346
371
381
350
336
360
360
323
322
349
351
316
325
352
351
319
329
345
351
370
476
605
688
664
514
337
261
295
361
370
328
319
346
351
320
328
354
352
321
340
365
354
324
347
369
352
328
354
371
346
334
365
377
347
345
378
387
356
364
393
394
365
384
409
401
374
399
421
406
382
406
421
391
369
392
394
355
345
370
372
337
339
364
362
329
340
362
356
324
347
367
350
323
350
368
346
331
360
372
344
338
367
371
337
344
373
371
337
349
374
367
334
354
376
360
333
356
372
350
331
359
370
343
336
364
368
334
336
362
362
327
338
361
355
326
343
362
350
327
352
368
346
329
357
369
343
335
362
370
337
337
366
370
342
356
386
386
355
373
398
390
358
379
395
372
348
371
377
345
331
356
366
337
338
363
363
327
326
344
359
373
467
599
692
662
504
331
274
305
364
371
333
315
345
357
326
322
349
353
323
333
357
354
322
338
363
355
330
352
371
356
336
363
378
357
346
375
386
362
360
391
399
372
383
411
409
379
393
417
412
386
406
422
402
371
387
392
361
340
363
368
337
329
353
357
327
329
352
353
323
337
362
356
328
345
362
349
327
351
367
347
332
359
369
343
336
360
365
336
338
361
360
329
339
359
355
328
344
363
352
330
354
367
344
329
358
369
345
336
360
366
337
338
362
361
332
343
363
355
325
343
361
348
325
348
364
345
326
351
362
337
328
353
360
330
327
349
351
324
334
354
349
320
337
357
348
330
357
379
367
346
371
386
363
349
370
373
342
337
360
353
319
324
346
342
312
326
346
338
309
317
339
356
402
525
645
675
548
363
285
292
330
358
347
311
319
342
338
309
323
343
337
312
333
351
337
318
342
356
336
327
355
366
341
337
364
371
343
349
376
378
349
365
389
383
360
384
403
393
370
395
412
395
379
403
408
376
363
382
381
346
345
364
359
328
339
359
354
327
344
362
351
327
350
367
349
331
356
368
343
336
363
370
339
341
366
366
336
349
371
366
336
352
373
362
338
361
376
357
337
360
373
352
343
367
373
343
343
369
371
342
352
374
367
337
355
375
363
335
356
372
354
334
357
367
344
333
357
366
339
339
364
366
334
342
367
364
334
350
372
361
334
355
370
355
334
361
380
363
354
382
389
365
366
390
390
357
356
377
371
334
341
358
347
319
341
358
341
319
343
348
318
319
384
461
538
646
692
548
319
258
324
362
334
336
351
341
314
336
353
342
321
344
354
334
321
349
364
341
333
356
362
335
339
363
366
340
351
374
370
342
360
381
370
349
376
394
378
366
393
404
381
376
404
410
380
375
392
387
348
353
371
359
324
340
354
338
314
337
350
330
311
335
348
325
317
344
350
321
324
350
351
322
332
354
348
319
339
356
343
317
340
357
340
322
345
355
331
321
344
349
322
322
344
343
313
321
342
338
308
322
341
332
306
326
341
325
306
328
339
318
306
333
342
315
313
340
345
315
321
345
342
314
328
348
337
311
332
354
339
319
347
366
346
332
362
378
348
341
365
363
327
325
341
335
306
320
339
330
303
323
341
326
298
315
340
364
429
567
684
663
491
324
269
280
322
350
340
303
315
338
332
304
325
346
335
312
336
355
334
319
347
359
335
328
358
366
336
338
365
368
339
354
381
379
349
371
397
388
364
391
414
399
380
407
423
398
384
409
413
376
366
385
384
346
349
371
364
329
343
362
349
321
342
361
344
324
350
362
338
327
357
366
335
331
357
363
331
337
363
359
327
344
365
354
327
351
369
351
328
355
370
345
330
354
365
337
334
359
362
329
336
363
361
327
340
365
357
325
345
365
348
323
349
365
341
325
354
367
336
330
360
365
331
337
366
366
332
345
370
363
333
354
377
365
345
376
396
373
357
391
403
370
362
384
384
349
346
365
363
329
338
362
357
327
347
367
347
312
340
387
427
507
646
700
605
383
289
319
336
347
364
358
320
329
358
354
322
339
363
353
326
351
368
348
331
359
373
348
339
367
378
347
349
378
381
350
363
392
392
364
385
411
403
377
403
428
414
393
420
436
412
398
421
422
383
373
392
388
348
352
375
367
332
345
365
351
321
344
363
344
323
352
366
341
329
361
371
340
336
364
367
334
344
370
366
334
349
371
359
329
352
370
353
331
358
373
348
333
359
369
340
336
364
368
333
337
362
362
328
341
364
356
324
344
366
351
325
350
367
344
326
355
365
334
325
353
361
330
333
359
357
323
336
361
354
321
343
364
350
324
350
369
347
334
368
390
367
356
384
394
359
358
385
380
341
348
370
358
322
339
359
343
314
339
357
335
308
326
351
365
425
551
664
665
523
346
286
296
343
366
347
311
330
351
339
312
338
357
338
320
349
363
337
327
354
365
335
335
365
368
335
345
370
368
338
357
382
372
345
372
394
381
362
392
408
385
376
406
417
388
385
413
412
369
368
386
373
332
345
365
350
318
338
359
343
318
345
361
337
325
353
365
335
332
360
365
333
339
363
360
326
341
366
357
326
347
367
350
328
355
371
348
333
360
367
340
336
363
366
332
334
361
362
327
340
364
354
324
346
364
347
321
349
365
340
324
350
360
331
326
356
362
326
330
361
359
323
336
362
353
320
341
363
348
321
344
361
339
320
350
366
342
335
364
377
350
352
382
388
353
361
383
373
337
349
364
348
320
342
359
338
319
345
354
326
311
333
354
366
439
571
682
664
518
351
277
280
339
368
345
308
335
358
338
318
346
361
337
326
356
368
340
341
370
375
343
350
375
375
344
362
388
379
351
375
398
382
363
393
409
384
374
408
421
393
393
422
425
393
400
424
416
377
386
402
384
348
367
380
357
331
353
367
343
330
357
366
336
333
360
364
331
338
364
363
329
345
369
359
332
353
371
354
331
358
376
351
334
361
373
341
335
363
365
329
335
361
360
327
342
366
358
327
347
367
351
325
350
369
346
329
356
366
338
329
356
364
332
337
365
365
332
344
369
361
329
350
370
354
328
354
372
355
341
374
389
360
352
387
399
363
361
383
382
345
350
367
360
328
344
364
352
326
350
371
349
321
346
384
413
497
639
701
647
451
318
309
328
365
383
366
329
348
371
361
334
360
378
358
338
367
383
359
350
381
389
357
356
386
389
358
367
393
391
360
379
400
387
358
384
406
392
374
403
418
396
383
411
421
389
383
407
407
367
363
381
367
325
340
363
350
318
339
357
335
309
334
349
322
306
334
339
304
299
327
328
293
298
325
321
283
297
319
312
280
302
320
304
280
306
322
298
282
311
319
288
282
312
318
284
288
314
312
278
291
316
306
271
288
307
290
262
287
303
279
260
286
297
267
261
292
297
261
264
292
291
258
270
293
285
255
276
299
285
259
283
299
276
259
291
309
285
283
319
326
292
298
326
326
292
301
324
313
275
291
310
295
267
294
315
296
278
305
309
272
276
345
421
489
599
662
525
282
226
298
331
299
306
322
310
283
311
332
316
298
329
345
322
312
340
347
318
320
348
352
320
333
361
357
326
347
372
360
336
365
388
371
351
382
401
382
375
405
418
390
392
421
424
391
393
417
408
366
374
391
372
337
358
374
353
329
357
375
351
337
366
380
352
349
379
386
355
361
388
387
354
369
393
384
353
376
396
377
354
382
399
373
358
388
399
369
364
394
398
362
365
392
389
355
369
393
384
353
374
393
375
351
378
395
370
352
378
390
360
351
381
387
352
354
382
383
347
359
383
375
346
368
388
370
342
365
384
363
344
372
382
353
348
379
384
347
352
384
390
362
377
404
396
365
388
406
385
354
377
392
364
336
357
369
340
330
357
366
333
332
359
348
312
347
424
499
574
684
659
446
263
284
356
359
331
345
354
330
321
351
359
327
326
356
358
325
334
361
356
320
338
359
349
324
349
370
351
332
363
379
353
342
373
384
354
356
389
394
364
377
403
398
366
385
411
397
366
384
395
369
338
359
367
332
310
333
338
304
300
328
334
303
314
342
340
308
326
352
343
315
343
365
350
330
360
376
352
339
367
378
351
350
381
387
356
364
391
388
354
368
393
385
355
376
398
383
359
384
395
370
353
381
391
363
358
385
390
355
360
387
387
354
366
389
382
347
365
385
372
348
375
391
368
352
380
391
364
356
384
394
366
368
397
401
368
380
406
402
366
383
399
379
345
364
371
349
332
356
365
337
329
356
362
324
313
345
378
409
517
651
696
576
388
294
299
320
358
366
336
314
344
359
333
320
347
355
327
328
356
357
324
337
361
353
322
344
367
354
325
349
370
352
331
359
375
352
347
378
387
359
363
394
400
369
383
410
405
374
392
411
395
360
376
387
361
334
357
368
337
320
347
354
323
320
346
347
312
320
346
344
308
324
348
337
309
335
353
337
314
339
352
328
313
342
353
323
319
346
349
315
321
347
343
310
325
348
338
308
330
346
325
300
327
345
323
308
337
346
316
309
338
344
313
318
345
345
313
327
351
341
310
329
348
332
307
333
347
323
308
337
349
320
312
343
355
329
338
365
361
334
351
369
359
328
347
364
345
312
332
347
325
309
338
348
320
314
339
334
298
322
403
490
568
667
645
438
257
280
352
352
313
328
343
322
306
334
345
317
309
337
344
312
313
340
342
313
324
348
343
311
331
354
345
322
345
362
344
327
356
372
350
345
376
386
359
361
391
398
370
382
405
400
367
381
398
381
344
360
371
347
323
346
357
330
316
344
349
319
318
345
350
319
329
356
353
323
340
362
352
324
345
363
348
327
355
370
348
336
362
371
344
341
368
369
336
346
373
367
331
345
367
356
330
352
369
351
332
361
376
353
338
368
379
350
343
370
374
344
352
377
373
341
354
377
370
344
361
379
363
341
369
388
375
368
393
399
375
373
395
398
367
366
388
381
341
347
368
358
328
345
362
347
324
346
351
327
336
416
516
602
685
647
450
278
282
361
382
340
342
365
363
336
352
371
358
333
358
373
353
339
368
379
353
346
373
379
352
358
385
385
354
363
385
383
359
379
400
388
368
393
415
401
386
412
424
402
396
421
427
396
391
408
404
369
369
383
376
346
363
379
363
337
358
374
356
339
364
375
348
337
364
372
346
344
366
369
346
356
378
374
345
360
377
366
340
360
374
355
334
358
369
346
335
360
366
337
335
356
357
329
336
356
351
319
332
354
354
334
356
375
360
343
371
384
360
344
361
364
331
317
338
339
307
311
331
329
300
314
335
325
286
296
332
367
428
563
678
637
440
290
263
285
312
337
332
301
306
328
328
302
316
339
335
312
334
352
341
322
348
362
344
330
355
366
339
333
359
367
344
351
376
374
345
360
383
378
356
376
393
383
365
391
406
387
369
390
396
365
351
370
368
335
331
352
351
319
328
345
340
313
333
350
336
312
334
350
332
316
342
353
326
318
341
347
319
320
343
343
311
321
345
344
316
329
346
337
313
336
350
334
318
342
354
330
320
347
354
327
328
353
353
323
333
363
367
343
360
382
380
359
379
392
371
346
362
362
330
318
342
349
324
322
348
349
320
327
344
332
313
363
446
536
623
684
566
341
245
312
365
345
321
338
347
324
322
345
346
318
327
351
349
319
334
354
346
320
339
353
338
319
343
354
336
327
355
365
341
341
369
379
356
367
395
399
374
390
415
411
386
407
425
409
384
398
405
380
360
381
386
358
350
373
377
348
352
373
371
341
352
373
365
339
358
377
362
339
359
372
352
335
357
366
337
328
352
355
323
322
340
335
291
286
296
281
247
258
270
252
225
242
252
229
213
237
250
221
212
236
242
216
218
244
246
216
226
247
243
215
234
254
240
215
239
253
235
219
245
257
233
227
255
265
240
241
267
273
249
262
287
284
254
267
292
288
263
283
295
275
255
275
278
254
248
277
286
259
263
292
297
268
268
297
325
355
461
591
654
548
356
260
272
301
334
332
301
291
321
333
309
307
332
336
311
321
346
346
322
344
366
357
335
360
380
368
350
377
394
378
371
402
416
392
392
423
431
410
428
458
463
443
464
493
495
477
502
521
505
479
496
503
478
460
481
492
472
467
489
493
467
477
503
503
470
482
502
492
461
477
494
481
460
487
502
484
472
500
512
491
484
509
514
486
491
516
516
487
500
520
513
485
503
520
507
485
506
519
501
485
508
516
487
476
495
498
469
468
488
488
457
467
484
476
446
460
477
463
434
454
466
447
430
454
465
444
435
459
462
436
442
463
458
423
425
441
427
385
394
410
398
369
388
407
391
372
392
394
361
365
433
512
585
691
699
588
365
296
353
390
363
366
375
365
344
365
379
361
341
364
376
354
343
368
376
348
345
371
375
346
353
377
375
345
361
382
373
350
373
390
374
354
383
399
379
369
396
402
378
375
400
402
370
371
391
379
339
345
362
350
319
335
351
336
312
333
345
327
314
338
347
322
318
344
347
316
319
341
340
312
325
342
333
306
328
343
327
303
323
338
321
308
333
342
316
310
334
338
309
313
335
333
304
314
334
327
298
313
330
316
294
317
334
314
297
323
334
308
303
328
334
304
305
328
331
305
319
339
334
306
327
346
339
320
344
357
342
333
361
369
342
329
349
350
315
308
331
332
301
310
329
325
298
317
328
303
285
340
416
495
591
678
588
353
234
283
339
322
309
324
323
294
304
329
328
300
317
336
326
304
327
341
325
309
337
348
326
318
344
350
323
324
349
350
324
336
361
359
332
351
376
373
351
374
393
380
363
388
401
375
359
380
384
352
347
367
366
332
337
357
353
327
342
361
352
327
349
366
351
331
357
371
352
339
362
370
346
344
369
369
338
345
368
365
335
348
367
357
330
350
366
350
327
349
362
342
327
350
359
333
326
349
351
321
326
349
346
317
330
350
341
311
329
350
339
316
337
353
335
321
346
356
332
324
346
349
319
323
346
345
313
323
343
338
312
330
349
336
314
344
365
351
340
363
371
349
342
361
366
335
332
353
349
313
323
343
336
309
326
343
332
313
330
333
322
342
433
543
626
660
559
356
252
294
357
357
313
314
334
331
304
322
339
326
305
330
347
329
313
338
352
329
322
350
358
330
331
357
359
333
343
368
363
334
351
372
362
341
363
382
368
352
379
392
373
363
389
395
366
359
376
368
332
333
349
340
307
318
335
325
301
322
337
320
299
321
334
315
304
328
337
311
309
336
338
310
315
338
337
306
319
340
333
308
327
344
331
311
335
348
325
311
338
346
321
317
340
343
314
319
342
340
312
325
345
334
304
322
341
329
307
329
342
323
310
334
344
320
313
334
341
317
321
342
340
312
324
344
338
312
329
346
333
307
329
346
327
315
346
360
339
337
357
359
334
339
361
359
328
340
361
349
316
332
349
337
316
338
352
332
308
327
354
373
436
563
680
666
511
343
284
299
346
368
348
314
331
351
340
316
338
355
341
323
347
359
337
330
355
363
337
341
367
369
340
351
375
377
350
367
388
381
362
386
404
393
381
410
424
402
391
417
427
400
399
424
422
384
385
400
388
351
360
375
362
337
357
371
353
335
360
370
345
332
355
359
331
330
357
358
327
332
351
349
319
332
349
338
313
336
352
335
316
341
352
329
317
343
353
326
322
344
349
318
323
344
341
311
326
347
338
311
331
352
340
320
343
353
332
320
347
362
342
344
371
375
349
361
384
379
346
353
371
357
323
338
351
334
311
337
353
333
315
340
345
313
317
377
447
521
639
699
609
375
273
312
352
339
348
355
337
315
339
351
328
312
338
346
322
320
347
354
326
331
358
356
326
340
361
353
326
351
373
361
339
364
381
365
351
382
395
371
365
393
401
374
377
404
406
372
377
392
379
344
356
372
355
329
349
363
344
326
351
362
335
327
354
363
339
340
361
359
331
343
366
360
333
353
370
356
330
355
371
353
335
359
370
346
337
362
368
338
337
363
363
331
339
363
361
330
347
364
352
325
347
365
350
329
356
370
353
348
378
387
358
358
389
393
360
363
380
372
336
340
355
346
319
338
354
340
321
345
356
331
310
334
363
384
463
598
696
636
447
306
294
318
357
370
350
320
342
361
344
323
350
364
341
326
353
365
338
334
362
370
342
349
376
376
346
363
388
380
352
379
400
388
370
399
416
398
388
418
427
401
399
431
438
407
410
434
427
389
394
408
395
361
377
394
380
354
375
388
367
350
379
391
365
358
387
391
360
365
391
389
356
365
388
381
353
372
391
376
349
374
392
372
354
376
383
353
344
369
373
341
342
366
365
335
345
366
360
330
351
372
359
333
355
371
352
336
364
377
350
340
369
377
347
347
376
385
359
375
405
399
367
389
408
394
366
383
393
370
342
358
367
342
329
355
362
332
332
358
355
312
323
378
434
496
619
697
595
351
273
323
347
329
342
346
324
314
341
350
322
323
354
359
327
337
363
363
333
351
374
365
338
359
378
360
341
369
385
363
351
383
396
372
372
402
409
382
390
415
414
385
402
424
416
388
404
414
393
363
381
387
359
341
365
369
338
337
365
368
335
339
364
363
333
346
367
358
330
353
374
359
333
357
371
349
334
359
368
342
336
361
362
331
334
361
358
326
342
364
352
319
337
356
343
318
341
355
334
317
340
350
325
320
345
348
317
319
343
342
311
324
350
347
323
347
368
352
328
358
375
354
335
356
363
334
316
334
339
308
307
332
334
301
311
336
327
287
304
347
386
443
575
677
593
371
260
278
306
314
331
329
299
302
330
330
299
308
333
331
304
322
343
332
306
327
344
327
309
334
347
325
317
347
357
330
332
359
363
336
346
371
372
341
356
378
371
344
366
385
368
347
370
378
350
331
349
351
321
317
338
337
306
312
335
329
297
313
333
326
301
321
340
327
304
326
342
321
306
332
343
318
313
336
341
311
313
336
332
301
317
339
330
303
322
340
327
303
325
343
323
308
334
344
319
315
341
345
316
320
345
343
312
329
357
352
326
343
362
356
338
360
371
344
325
346
349
315
301
326
331
301
300
324
328
298
310
328
312
285
334
417
501
592
688
614
386
241
278
343
336
313
330
335
307
308
333
335
305
318
343
338
308
328
351
340
317
342
362
342
323
351
365
343
336
364
375
347
349
375
380
349
358
385
386
356
372
395
386
361
382
400
383
360
380
385
354
337
361
368
335
329
352
355
324
331
356
355
322
339
365
359
328
349
370
354
331
357
372
349
336
364
373
343
339
368
372
338
344
370
368
335
350
378
371
339
357
376
358
333
361
377
352
337
367
379
348
343
373
378
343
346
375
375
341
355
380
370
340
361
384
368
344
368
388
372
359
391
404
378
381
413
418
384
383
406
401
358
361
382
373
340
358
380
365
337
361
377
343
317
364
426
478
575
697
686
488
303
296
346
341
345
359
348
314
332
356
342
315
342
364
343
325
352
370
344
333
359
371
339
338
367
373
338
346
374
372
339
360
388
375
349
378
400
380
363
394
414
387
375
405
416
384
378
402
399
356
354
375
367
331
345
367
353
320
340
363
344
320
346
364
336
321
353
366
332
329
361
366
329
337
368
364
328
344
369
357
327
351
374
355
329
356
374
349
335
363
375
342
337
371
380
343
347
376
377
342
356
381
372
339
359
384
367
339
364
382
355
339
371
384
352
347
375
381
346
350
379
378
340
353
383
374
341
362
388
372
346
370
388
362
344
371
384
352
347
377
384
346
346
374
376
340
352
381
371
335
356
379
366
345
375
398
371
342
365
382
355
343
370
376
343
344
367
360
322
333
360
354
322
341
359
333
309
368
452
524
612
695
622
384
263
322
381
354
340
360
363
329
337
358
350
318
338
364
350
323
349
372
350
331
361
378
351
341
370
382
350
350
381
386
352
362
392
390
359
380
406
396
369
394
416
397
379
406
422
395
379
404
408
366
356
376
372
332
335
358
353
318
332
353
342
317
341
362
342
323
352
371
346
332
361
372
340
341
372
376
340
346
375
371
337
354
378
368
339
359
379
361
338
365
381
352
336
361
372
343
338
366
370
334
338
362
354
320
333
356
344
315
335
355
336
310
336
355
332
317
347
360
329
323
351
355
317
322
350
350
315
328
353
344
310
330
351
334
311
339
356
330
312
339
350
321
315
342
350
316
320
348
348
317
332
363
361
329
349
379
366
334
357
374
348
326
345
351
318
312
342
349
314
318
349
352
313
316
347
372
403
519
655
686
542
360
283
290
317
355
359
320
306
334
342
309
309
339
342
309
318
346
342
309
329
356
345
316
338
359
342
324
349
361
332
326
359
371
338
341
373
379
346
358
388
385
355
375
401
389
358
378
394
368
341
361
369
332
314
342
351
316
314
341
346
311
322
347
344
312
332
358
343
312
340
363
341
318
344
361
334
320
351
364
331
327
358
364
328
337
365
363
327
344
371
359
326
347
370
350
327
353
371
343
326
354
366
334
330
360
366
330
333
360
355
318
331
357
347
315
337
361
344
316
340
360
336
320
347
361
330
321
352
361
326
330
359
358
325
339
365
358
329
355
381
366
345
374
394
375
359
385
401
366
353
378
377
332
333
361
359
323
336
365
358
325
342
356
343
347
432
549
638
689
627
433
279
283
364
389
346
339
364
364
328
340
369
362
329
347
372
359
334
360
381
359
340
367
382
355
345
375
384
351
353
385
391
356
366
396
398
368
384
408
396
372
398
418
396
379
408
420
386
370
395
399
359
348
369
369
334
339
363
358
321
334
356
344
314
337
359
340
321
349
364
337
325
353
363
328
324
353
358
321
325
352
351
317
331
357
346
317
340
358
337
312
339
356
330
317
344
356
325
320
348
354
319
325
352
348
312
327
352
342
313
334
354
336
313
339
357
334
317
342
354
326
320
347
354
317
321
350
349
315
328
353
343
311
332
353
336
311
337
355
331
318
346
363
339
340
376
382
346
354
385
383
346
352
373
362
325
334
352
335
310
333
353
329
311
338
348
305
300
359
429
492
604
692
598
353
260
316
357
334
340
354
338
314
338
358
336
322
351
366
336
330
359
369
337
340
371
375
342
355
382
379
348
368
397
384
359
387
410
391
375
406
427
403
395
428
438
406
408
439
444
411
422
446
434
391
399
414
395
361
378
392
364
341
366
378
347
332
357
364
328
327
354
358
322
330
356
352
317
333
361
351
318
339
360
338
312
338
355
325
310
339
352
319
314
340
342
308
316
345
340
305
320
342
331
303
326
347
327
301
326
342
313
300
329
339
309
305
333
338
303
308
338
338
305
320
348
337
305
328
353
336
315
346
367
339
323
351
365
333
327
356
363
328
333
363
362
328
346
377
374
346
367
391
378
354
379
393
360
342
369
376
336
327
357
362
325
329
361
360
322
330
348
346
347
433
553
643
664
567
379
271
291
364
382
336
319
347
356
320
323
354
355
320
332
358
352
320
340
366
350
324
352
375
352
333
361
378
348
341
374
386
352
354
387
392
360
376
408
405
372
392
419
408
383
407
425
397
373
395
401
361
343
368
373
333
329
355
360
324
333
359
353
318
338
365
352
323
347
370
349
329
359
375
344
332
363
374
339
341
372
374
337
348
377
373
338
354
380
366
336
359
380
356
332
357
373
345
334
360
368
333
329
357
361
326
335
363
357
319
338
364
351
322
345
366
345
322
349
366
337
325
354
367
334
332
365
372
336
343
371
369
334
349
374
359
327
355
381
359
334
362
380
350
336
370
388
360
362
392
395
363
377
406
399
357
365
387
368
327
346
368
349
325
350
367
340
325
352
354
318
337
420
510
581
670
640
438
263
284
362
366
320
333
357
341
319
345
363
335
318
350
365
335
333
363
369
333
340
371
372
340
357
383
377
347
369
395
379
354
384
406
384
371
404
421
393
388
419
429
399
406
437
435
397
405
425
409
367
377
393
372
340
360
373
347
329
357
371
337
327
357
365
331
333
360
363
326
335
364
357
324
343
371
359
333
358
379
357
336
365
383
354
346
377
389
357
355
383
388
355
363
387
381
348
363
385
372
341
360
379
359
339
366
381
354
342
367
375
344
342
370
373
338
344
369
369
336
350
374
362
332
352
374
356
335
357
373
346
332
360
371
339
336
362
368
339
350
378
379
349
360
387
385
358
372
388
363
340
357
364
333
317
338
348
319
317
343
346
310
305
323
337
350
439
563
659
635
494
336
269
290
350
368
332
310
338
354
326
319
347
357
330
334
359
363
336
352
377
367
338
357
379
366
342
365
383
361
345
369
384
361
360
388
394
365
371
400
402
374
385
409
404
377
394
413
398
369
383
393
368
348
368
376
346
338
362
368
336
337
362
363
330
341
364
355
323
338
359
344
316
335
351
329
312
336
348
319
308
332
341
311
311
333
338
307
315
337
333
305
319
340
328
303
323
341
321
303
328
340
314
306
332
339
308
310
337
342
311
318
346
340
308
322
346
336
308
330
349
329
313
336
351
326
314
338
348
322
322
347
350
317
325
350
346
316
333
355
345
317
337
355
338
323
352
371
352
342
365
379
354
349
373
371
333
338
355
343
307
319
340
328
302
323
343
325
302
313
328
330
373
484
602
651
579
403
278
260
318
356
343
300
311
337
328
302
324
345
328
306
332
350
328
312
338
352
326
324
353
360
328
335
362
363
334
349
374
366
342
367
390
377
358
385
404
382
372
403
416
386
386
416
418
380
377
395
386
347
356
375
361
326
343
362
343
319
343
363
340
323
347
363
335
327
353
361
329
333
361
361
329
342
367
359
331
351
372
355
332
355
372
349
335
364
378
347
341
368
374
341
344
371
373
340
353
379
372
341
358
380
364
339
363
381
356
337
366
384
354
347
372
381
348
350
377
377
343
355
379
370
337
357
380
363
338
364
383
359
342
369
380
347
336
361
368
333
335
367
377
348
362
391
384
350
373
398
380
346
364
385
359
330
348
360
327
316
343
349
316
314
344
338
294
316
386
451
514
638
674
499
280
262
333
342
317
331
346
318
307
338
349
316
319
348
354
322
333
359
353
322
342
368
355
328
355
378
357
337
365
385
359
351
383
396
366
368
401
410
379
388
416
413
381
400
428
416
387
406
419
392
363
381
390
355
337
361
368
334
332
361
364
328
337
365
363
330
346
370
359
329
353
376
355
333
361
378
349
338
367
378
345
341
368
372
336
346
374
370
335
352
377
364
333
355
377
356
331
356
374
347
332
360
373
339
335
362
365
330
335
362
361
327
343
369
358
326
351
375
356
332
358
380
356
340
367
378
347
343
373
381
347
351
379
379
345
359
386
376
343
363
385
367
346
377
399
378
360
384
400
375
366
392
394
356
357
377
368
328
338
361
352
321
340
361
343
314
329
347
348
384
498
621
676
602
434
306
269
318
368
363
321
329
356
351
322
340
364
349
323
349
371
350
331
357
371
343
336
364
372
340
342
372
374
339
350
376
372
342
362
383
367
341
367
389
369
354
380
393
364
356
384
389
352
347
366
362
321
327
347
339
307
324
346
332
307
332
351
328
309
338
354
326
316
343
352
321
321
348
351
317
325
352
349
316
332
359
350
323
343
364
341
321
348
363
335
328
359
368
335
331
355
359
328
335
360
359
327
342
365
353
328
349
368
351
332
356
370
343
332
361
371
339
340
369
371
338
345
372
367
334
350
378
367
339
362
390
375
353
379
395
375
369
394
402
365
356
379
375
331
335
363
360
326
338
361
353
325
343
354
332
328
403
508
596
679
676
508
308
261
330
369
336
329
349
347
316
331
354
345
315
335
360
343
321
344
359
339
327
353
367
338
334
364
372
342
349
377
378
348
365
390
383
357
379
403
392
372
399
419
401
386
411
422
391
377
398
398
358
354
373
368
330
339
362
352
318
331
353
339
314
337
355
332
316
342
356
324
315
342
353
323
324
349
350
321
332
359
354
323
339
358
344
323
347
364
341
324
350
364
335
324
350
358
325
325
350
350
318
328
352
345
313
328
352
338
311
334
351
328
309
332
346
323
318
348
364
337
339
365
375
351
360
382
376
339
349
365
345
310
327
344
325
302
323
336
308
296
318
316
286
317
401
491
568
650
598
388
235
267
342
346
310
321
337
319
302
330
349
322
312
341
350
319
318
345
350
318
327
353
353
323
339
363
352
327
352
375
358
339
367
386
364
354
384
401
375
373
402
412
385
393
415
412
375
380
396
375
340
353
368
346
320
343
356
329
316
343
354
324
321
352
360
327
333
363
363
333
350
378
376
351
374
396
381
360
387
405
379
364
389
402
372
367
393
398
364
367
392
389
351
360
379
365
332
349
369
350
326
347
361
340
330
360
372
342
342
372
375
339
339
360
354
312
316
337
327
298
317
341
328
304
328
346
325
303
324
355
375
448
576
679
627
436
299
293
312
347
362
342
309
331
352
336
313
339
358
336
322
350
361
333
330
358
366
334
336
360
363
332
344
370
364
336
357
384
373
352
378
398
383
370
399
416
391
387
413
423
392
391
413
405
364
365
381
368
332
343
361
346
321
343
362
338
319
347
360
332
323
352
361
329
329
357
361
329
340
366
361
332
346
367
355
333
356
374
351
335
358
372
344
332
356
365
334
334
357
358
325
334
358
351
319
334
357
344
320
346
374
360
345
367
385
368
362
386
391
352
344
360
352
315
324
346
341
310
325
348
335
310
333
349
330
324
375
442
507
603
648
499
286
256
337
370
329
326
348
343
311
327
350
340
312
335
355
333
312
339
357
333
322
350
362
334
333
361
367
338
349
376
376
346
365
393
387
365
389
415
402
384
411
430
405
395
423
434
398
387
409
406
360
358
378
369
331
346
367
354
324
346
368
349
329
355
371
344
330
360
374
344
342
370
374
341
348
376
377
344
355
379
369
341
362
382
362
341
365
381
353
341
366
374
341
338
368
374
338
343
377
383
353
368
393
391
370
392
410
388
359
379
386
351
330
355
366
336
332
360
367
332
336
362
349
305
327
388
444
510
641
694
545
321
264
316
336
329
344
349
320
317
343
348
318
323
351
352
319
334
359
351
322
343
368
354
330
353
372
348
335
365
380
353
350
379
387
358
362
389
392
361
374
403
395
363
381
400
383
354
370
380
350
324
342
349
314
299
325
330
295
295
319
318
281
291
317
311
280
296
321
311
288
314
335
316
301
330
346
318
311
340
349
317
321
351
356
324
336
362
355
325
347
373
360
337
359
377
358
341
367
383
353
341
367
375
345
346
374
375
342
352
379
372
338
358
385
376
354
375
398
384
367
393
404
372
357
378
378
338
334
359
361
328
338
366
361
328
341
356
335
322
386
478
562
652
688
546
324
255
328
378
346
330
350
353
319
325
350
348
318
336
361
349
322
349
371
355
335
360
374
349
340
369
377
346
348
377
383
353
366
396
396
364
383
411
404
378
402
425
408
389
413
429
400
383
402
406
369
360
383
384
347
352
376
371
335
350
375
365
337
358
380
360
337
362
380
355
340
364
375
344
340
367
370
336
341
365
363
333
349
373
361
329
351
374
355
331
353
368
342
328
354
364
333
329
355
358
322
329
356
352
319
336
362
351
323
342
362
346
325
350
366
339
324
352
364
332
327
351
354
323
329
357
356
324
339
363
353
323
345
367
347
323
349
368
344
328
355
367
336
332
360
368
336
342
368
364
330
344
370
361
331
352
375
357
335
365
385
367
359
387
395
365
360
384
385
349
352
380
378
336
340
364
354
322
341
364
346
321
346
357
330
335
414
510
584
666
664
483
291
287
363
380
335
334
353
345
316
336
359
340
314
339
358
335
319
345
360
332
327
356
365
332
336
366
367
333
344
367
362
334
355
382
371
347
375
399
379
365
395
410
381
374
404
410
374
374
395
389
349
353
374
362
328
346
367
349
319
342
363
342
324
350
361
332
321
349
357
323
323
350
354
318
328
357
351
317
334
360
346
321
346
365
343
323
348
361
332
322
351
362
331
331
360
361
324
333
360
357
326
344
367
351
326
352
376
352
332
357
371
343
335
364
376
343
344
373
374
338
347
370
366
336
355
376
362
335
357
378
359
340
363
376
350
341
373
390
363
357
381
391
362
364
383
373
337
347
362
341
309
329
349
330
306
332
347
322
312
330
331
311
354
458
568
643
665
533
333
237
293
356
349
310
324
343
327
307
333
349
326
316
346
357
325
322
349
355
324
329
355
352
320
335
358
349
323
345
365
351
334
360
379
358
349
380
395
368
367
397
403
371
377
399
392
353
359
376
362
327
341
356
336
311
332
346
323
308
332
343
315
308
334
340
309
315
342
343
313
326
350
341
311
331
353
338
316
337
351
329
319
348
358
329
324
349
356
325
329
354
353
319
331
350
340
313
334
354
333
309
334
352
327
311
338
351
324
318
341
347
315
318
343
344
313
322
345
338
310
330
349
332
310
335
351
329
313
339
357
336
335
368
378
345
350
382
384
349
356
375
367
332
341
354
337
312
334
351
329
313
340
352
317
297
328
368
399
495
633
698
609
413
294
288
310
348
360
337
311
335
352
334
318
344
358
332
325
354
363
335
340
367
369
337
349
373
370
342
362
385
373
350
373
391
374
361
387
401
377
372
401
410
381
384
410
412
382
391
410
398
358
366
379
361
328
344
361
340
319
340
351
326
319
348
359
330
330
355
357
326
336
358
354
327
344
364
352
328
351
368
347
330
356
368
340
329
353
362
331
328
353
356
326
334
358
353
318
332
354
342
315
336
355
338
321
345
359
333
324
350
360
330
329
358
361
328
336
359
355
324
340
361
347
318
339
362
343
323
348
364
338
327
353
366
336
335
361
367
337
345
367
362
334
352
376
366
345
375
399
375
356
387
399
368
352
374
381
348
339
356
356
324
333
358
355
324
341
363
347
307
334
390
436
512
642
697
578
354
280
325
342
343
353
349
316
324
348
343
312
327
352
343
318
338
359
342
322
349
366
343
331
356
368
341
340
370
377
346
356
387
389
361
378
407
400
376
399
423
407
387
413
431
407
392
414
416
377
365
384
380
340
339
360
357
324
334
355
344
314
336
358
340
320
346
363
340
326
355
365
336
333
361
368
336
344
371
369
336
348
372
365
337
353
374
360
335
355
373
351
337
362
372
341
337
364
369
336
338
363
362
331
341
363
355
328
347
369
354
331
353
369
348
332
354
366
340
333
357
364
334
337
361
361
331
342
366
356
325
343
366
349
325
349
367
344
322
344
357
330
323
348
356
323
323
348
348
317
329
357
356
330
347
365
355
337
358
370
342
319
340
348
315
301
324
330
299
300
324
327
296
306
322
306
287
342
434
524
610
655
523
301
216
283
338
313
294
316
324
297
301
331
336
304
310
334
333
304
322
344
332
308
331
351
331
313
341
355
328
323
353
363
334
338
369
374
344
356
385
384
355
374
400
388
363
389
410
389
366
388
396
362
346
364
368
334
331
354
355
321
332
355
348
316
338
362
348
322
347
367
346
328
354
369
342
332
361
372
341
341
369
375
344
353
376
372
342
362
385
373
345
365
387
369
350
375
390
364
357
385
391
359
356
380
384
348
354
379
374
339
356
382
371
343
363
384
369
348
373
388
361
349
378
389
356
352
377
382
351
359
382
376
341
358
385
374
347
376
404
384
366
400
415
382
365
386
394
357
346
366
368
331
338
365
364
333
346
371
353
315
342
396
439
517
659
699
619
402
295
311
328
343
362
358
322
330
357
358
326
342
369
362
336
358
379
362
343
370
386
360
349
379
392
360
357
390
399
365
371
401
403
371
387
415
408
382
406
427
411
391
419
437
411
396
421
428
389
375
397
398
356
355
379
374
339
353
377
365
335
358
381
365
344
373
392
367
353
380
393
362
358
386
390
352
353
381
381
345
354
374
364
335
354
372
352
328
354
373
345
326
352
364
329
321
348
348
308
308
331
325
286
295
317
301
263
276
294
273
243
265
282
260
244
273
291
266
263
295
310
287
298
332
338
311
331
366
367
340
367
397
386
365
394
425
413
400
432
446
413
409
447
454
416
414
435
431
393
398
417
407
374
395
420
405
380
403
420
386
360
404
466
514
611
700
699
565
368
331
377
379
388
403
390
359
379
403
387
360
386
407
385
367
394
407
375
365
394
402
369
373
401
401
366
378
400
395
365
382
407
394
368
394
415
399
386
414
428
400
393
425
433
399
397
418
412
368
367
384
370
330
339
357
341
311
330
347
324
305
333
349
321
311
341
351
319
318
344
348
314
323
351
347
314
330
353
342
313
337
358
340
321
348
365
339
328
356
368
336
334
362
367
333
342
369
365
330
343
365
351
323
345
365
343
321
346
359
334
324
350
360
330
330
357
362
332
339
364
361
328
343
364
353
325
345
363
343
321
344
361
333
318
345
356
327
324
349
354
322
328
358
362
333
351
376
367
343
366
384
364
337
356
368
340
322
341
349
318
313
340
344
313
319
341
328
294
329
404
476
552
658
650
441
257
273
340
333
307
320
324
295
290
314
318
283
287
312
310
277
289
314
306
278
296
314
299
279
305
325
304
291
316
330
306
306
336
347
323
334
366
373
348
365
391
386
363
387
411
397
373
392
402
369
345
363
367
335
325
348
353
320
322
347
346
314
327
351
344
318
339
360
344
320
344
362
340
325
351
362
336
330
355
363
333
335
360
360
330
340
362
354
325
342
365
351
327
349
368
346
328
353
366
338
333
359
365
334
335
359
361
330
338
361
355
327
346
366
349
324
346
362
339
323
346
359
332
323
348
354
322
324
349
348
316
328
353
351
325
344
366
354
330
352
374
358
346
375
389
365
360
385
390
356
350
372
367
326
328
348
339
305
323
346
333
308
330
340
309
300
360
437
508
611
677
554
319
242
308
353
322
315
334
328
298
315
340
328
303
324
345
326
310
337
351
323
315
341
348
320
323
348
350
319
330
356
353
325
346
370
359
335
356
375
355
337
360
376
349
343
372
381
354
352
375
369
330
336
356
348
312
325
345
331
304
324
344
325
306
330
345
320
307
330
337
306
306
334
337
303
309
333
328
298
314
335
323
298
323
346
331
315
343
360
338
328
355
367
337
335
363
366
332
340
365
360
328
346
370
358
331
353
373
353
333
358
372
347
334
359
369
336
334
359
360
326
334
359
354
321
337
363
351
319
338
357
339
316
340
360
340
331
357
366
338
337
360
363
325
325
348
339
296
307
334
330
307
335
365
354
337
367
381
357
371
458
567
652
700
697
574
372
333
404
438
403
404
420
406
376
396
414
394
370
395
411
381
364
389
402
371
364
389
392
356
358
386
384
349
360
383
369
336
355
378
359
336
362
381
357
345
372
382
351
349
378
381
338
336
355
345
303
308
324
307
272
289
308
287
262
285
300
274
260
289
300
269
266
294
301
271
277
308
309
274
289
317
310
282
305
327
309
289
319
340
315
298
326
342
313
309
337
342
309
316
345
345
312
326
351
343
314
333
355
339
315
339
357
332
318
346
359
324
317
347
356
323
328
356
356
323
336
364
357
326
344
367
351
327
353
373
348
329
358
376
350
351
383
389
357
366
393
389
352
362
383
370
332
343
363
346
318
341
361
337
319
345
352
312
313
378
455
522
634
696
579
336
253
312
349
326
331
344
327
299
323
343
321
305
334
346
315
309
342
352
318
320
349
351
317
328
357
353
327
349
372
362
340
365
385
367
352
383
403
380
374
405
417
387
390
418
418
384
392
413
398
358
367
386
364
331
350
369
346
324
349
364
335
323
347
354
323
324
351
354
321
332
360
356
325
344
369
355
329
351
373
355
336
362
379
352
342
370
378
342
341
371
374
339
347
373
370
340
357
381
367
336
357
377
353
332
357
371
342
331
356
362
329
328
354
354
319
328
356
353
322
337
360
347
317
339
361
341
325
356
373
346
336
368
381
349
349
376
381
348
359
392
396
369
386
404
386
359
379
396
376
354
378
395
366
347
369
379
346
344
374
379
347
353
373
358
332
384
475
562
638
695
602
379
280
346
402
373
345
367
380
352
350
377
382
348
356
383
379
347
365
392
383
357
380
399
378
358
387
404
378
364
392
405
375
373
402
409
379
387
414
413
383
400
425
413
386
410
432
410
383
401
408
371
349
367
371
333
327
354
353
314
318
343
342
308
323
347
339
311
332
354
335
312
336
353
326
312
339
350
319
314
340
348
315
322
350
346
312
327
350
340
310
331
351
334
311
336
353
326
312
341
352
318
311
340
346
309
312
336
333
301
316
338
326
297
317
339
319
293
317
335
310
295
323
337
307
300
327
333
301
308
337
336
299
310
337
326
294
316
340
321
296
323
341
322
318
349
367
335
322
346
356
327
330
359
356
324
337
354
339
309
331
351
335
312
337
355
327
302
329
366
388
472
615
697
617
427
305
290
304
342
362
346
314
337
360
345
321
347
368
346
331
359
374
344
340
371
379
344
347
375
376
347
362
389
383
353
376
403
391
370
397
419
400
390
421
438
410
403
430
437
405
405
426
420
380
383
397
379
339
350
368
350
320
340
359
334
314
342
356
326
320
347
353
319
320
348
351
315
326
353
349
317
331
353
338
310
332
352
332
316
342
356
327
317
341
347
315
316
341
341
308
318
343
337
304
321
346
334
307
328
345
321
305
331
344
317
305
332
343
311
315
344
346
313
323
348
342
313
330
350
334
310
332
349
327
309
332
344
321
318
347
355
318
313
337
340
303
308
328
321
291
304
319
303
277
299
317
297
280
305
318
285
267
306
356
403
518
665
695
556
361
296
324
341
369
384
365
340
364
384
365
347
373
389
366
358
385
398
371
372
400
406
379
391
418
418
391
409
433
426
406
434
462
448
436
464
484
463
458
486
499
472
472
498
502
471
478
499
485
445
451
463
442
409
425
438
411
389
412
426
400
387
411
420
390
389
412
412
380
387
409
404
372
387
409
396
368
386
402
381
359
382
397
367
350
371
381
349
344
370
373
337
342
366
361
328
341
362
352
327
347
365
343
321
348
362
335
326
354
367
340
339
365
366
332
338
365
361
329
345
367
359
332
349
366
346
325
350
364
336
325
354
365
335
334
360
362
330
336
360
357
325
340
364
350
322
347
374
361
348
375
386
359
350
370
373
337
330
358
361
322
324
349
346
313
329
354
342
313
335
348
321
315
388
479
554
639
669
516
296
254
327
357
314
308
330
326
295
310
334
321
295
318
339
321
301
326
343
316
305
335
350
322
324
353
361
330
340
368
368
337
354
379
369
343
369
395
381
363
394
416
393
383
410
420
388
383
405
399
358
356
374
365
327
337
358
345
316
333
352
335
311
334
351
324
310
338
351
320
316
345
352
320
326
353
350
316
331
354
344
313
334
356
338
313
338
355
328
314
341
351
318
313
337
343
311
317
345
344
313
326
349
339
312
334
354
335
315
343
362
338
324
352
366
338
334
362
369
337
344
372
372
338
352
376
366
335
355
377
359
339
366
381
356
342
373
387
357
352
380
383
350
355
380
376
341
355
383
378
352
376
397
379
361
385
396
366
346
374
383
344
329
353
359
325
328
352
349
313
324
345
326
302
354
437
516
603
674
571
337
233
296
354
329
310
327
333
301
306
334
335
301
316
344
336
306
324
345
330
308
335
348
322
309
338
353
325
321
349
356
324
333
365
367
336
353
382
376
347
368
391
376
354
379
398
372
353
375
380
341
328
350
350
309
310
336
333
297
309
333
325
296
317
338
323
302
327
345
321
308
336
350
323
321
348
351
317
323
349
348
317
328
351
344
316
335
356
341
314
338
355
333
319
345
354
322
315
342
348
315
319
343
341
308
321
345
335
308
330
352
336
312
336
353
328
313
339
351
323
316
339
347
318
322
347
347
315
324
348
344
315
331
351
338
317
339
359
338
324
357
378
352
347
380
393
356
354
377
373
337
340
358
347
314
332
352
337
311
333
351
324
298
328
376
412
506
643
697
597
401
300
302
319
349
363
347
320
344
368
355
331
351
371
351
335
363
376
348
343
373
384
354
358
387
391
361
372
397
392
364
384
407
397
375
397
416
399
387
414
431
406
400
423
431
401
403
427
423
384
390
406
389
350
358
374
358
332
350
368
345
328
353
363
333
324
350
358
324
324
347
346
313
322
345
339
308
326
347
330
305
326
344
322
305
328
339
311
305
331
338
308
311
339
341
308
318
341
334
302
319
338
322
297
320
336
311
292
319
332
306
301
326
331
299
301
327
332
300
310
335
329
299
317
339
326
300
321
339
317
301
328
342
316
306
332
342
316
322
355
363
333
343
371
371
340
355
375
359
333
350
361
334
317
342
359
334
325
354
364
330
318
337
360
381
472
604
693
649
481
323
278
303
355
369
336
314
337
351
327
319
345
352
324
328
357
359
329
339
365
361
334
354
377
367
344
371
397
383
368
395
413
389
386
418
429
401
405
433
437
407
419
444
440
412
429
452
436
405
417
428
402
378
396
401
371
358
381
387
353
351
377
377
345
354
380
375
347
366
388
374
347
367
383
364
349
374
385
354
342
369
376
345
346
370
371
340
348
371
367
337
349
368
355
331
355
374
352
332
356
368
342
336
362
372
341
343
369
371
337
347
370
365
335
354
376
363
339
359
379
360
343
367
380
355
347
373
379
347
347
375
378
346
355
378
373
346
361
380
365
338
358
375
352
335
365
382
361
355
379
384
359
363
383
376
336
341
358
346
306
317
337
321
296
317
334
311
292
313
317
297
323
411
512
587
641
567
360
226
266
335
335
295
304
324
313
292
314
331
312
297
324
336
310
306
336
344
315
316
344
347
318
330
357
355
327
346
370
360
338
363
381
363
353
382
398
376
373
400
409
380
381
408
412
379
383
398
383
344
355
370
352
321
339
352
331
313
340
354
328
317
343
348
316
316
342
342
313
323
347
343
314
331
350
339
317
338
355
335
317
340
353
328
319
343
349
317
316
340
341
310
317
340
336
305
322
342
330
307
330
346
328
309
331
343
321
316
341
348
320
323
351
355
327
337
361
356
327
343
363
349
324
345
362
346
331
356
368
344
336
360
369
344
344
368
368
337
345
366
360
334
350
371
360
339
365
388
374
359
383
395
376
370
392
400
368
361
380
377
338
342
362
358
330
346
368
357
335
352
354
332
340
416
516
602
678
649
462
280
267
341
370
334
331
351
348
320
335
355
346
322
341
359
342
322
343
355
334
325
350
358
332
333
357
363
337
346
367
365
340
355
377
371
350
370
390
375
359
384
401
381
371
397
408
383
377
392
388
352
351
368
361
330
340
356
343
317
336
355
342
325
346
361
344
335
360
371
347
344
368
374
348
353
373
374
349
362
382
374
350
366
386
375
359
379
393
371
359
383
391
364
361
382
386
356
362
384
382
354
364
383
376
354
369
382
367
349
368
378
357
348
368
375
351
345
365
370
343
345
364
365
341
352
366
355
333
351
368
352
333
352
363
343
332
353
362
340
339
364
372
349
351
373
384
363
366
380
370
345
358
365
342
323
343
352
333
322
342
352
326
318
328
333
334
393
501
612
673
629
449
291
259
325
365
347
316
329
343
323
311
330
340
316
310
332
337
312
317
337
335
311
323
341
338
317
334
349
337
321
342
358
344
336
360
375
354
351
373
381
359
366
387
388
362
371
388
380
354
363
369
347
322
335
342
319
303
319
327
303
299
318
324
298
301
320
320
294
304
320
314
293
308
325
313
298
318
330
311
301
319
328
305
300
321
325
300
304
325
321
296
306
323
316
294
310
324
310
293
312
324
304
293
313
323
301
300
322
327
304
308
329
327
300
313
333
324
298
312
328
314
294
312
323
304
294
313
322
300
299
320
322
296
296
316
319
294
303
321
317
295
313
330
316
302
323
337
318
308
336
353
334
336
357
361
339
343
361
357
325
333
350
341
311
323
341
329
309
330
345
327
316
330
330
311
338
419
515
597
668
605
395
251
283
349
351
316
323
338
327
308
328
341
321
310
333
343
321
320
343
349
324
330
353
355
333
345
366
360
338
356
376
365
350
375
392
375
366
390
404
387
388
415
423
400
409
432
432
403
410
423
406
371
381
392
370
345
360
370
345
332
353
362
334
328
350
354
327
332
349
345
314
324
341
334
311
332
352
340
325
350
368
352
344
371
385
361
358
382
388
360
364
389
388
359
368
388
382
356
370
388
375
356
374
387
367
355
377
386
360
356
378
382
354
357
376
372
340
347
366
358
333
350
367
351
331
353
368
346
332
355
366
341
340
363
366
337
345
368
368
342
353
374
371
346
362
384
369
347
368
383
362
356
384
401
380
376
401
412
385
390
410
404
371
378
390
373
348
366
382
363
344
370
386
365
346
356
371
383
448
570
684
690
579
393
301
305
364
390
370
338
356
375
361
340
358
373
356
347
367
376
349
348
375
379
350
355
379
379
350
364
388
383
359
377
395
384
368
392
406
387
377
400
410
387
385
407
411
383
388
410
406
373
376
386
370
339
346
357
338
314
328
340
320
306
330
342
318
312
334
341
317
326
349
347
323
337
357
348
321
338
356
344
325
347
365
347
334
357
368
347
343
363
370
346
351
371
373
348
358
377
369
346
365
380
362
344
363
374
354
345
365
372
351
350
372
376
348
351
370
369
341
352
372
365
342
357
373
358
340
359
372
351
338
360
372
349
346
368
375
352
361
386
391
374
390
405
399
386
405
416
399
376
389
392
365
346
362
366
340
335
354
359
333
338
352
339
319
362
442
533
626
697
630
415
264
285
345
346
326
335
342
320
317
337
343
320
325
343
341
317
328
347
343
324
342
360
351
337
358
372
356
349
374
384
362
362
384
391
371
379
402
405
383
397
417
410
387
400
415
403
383
396
400
372
356
371
373
344
336
353
353
329
335
350
348
328
339
356
351
330
345
361
352
338
359
369
350
342
363
371
347
344
364
368
343
348
368
366
340
350
366
360
339
355
371
358
339
357
369
351
339
358
367
344
342
361
364
341
347
365
364
340
350
368
363
342
357
371
356
339
355
366
350
339
358
365
342
336
354
359
334
336
353
351
327
335
351
346
327
341
356
343
327
345
362
351
346
368
376
353
356
378
377
348
348
362
359
329
329
340
333
312
324
336
323
308
325
335
308
295
337
398
462
564
668
636
418
261
273
324
320
319
325
317
300
317
331
317
302
319
333
318
309
327
337
321
318
338
344
322
328
347
349
328
340
356
353
336
352
371
363
349
371
389
377
371
392
404
385
384
404
411
390
390
403
397
366
364
368
352
324
332
344
330
312
327
336
318
312
334
343
323
319
337
342
320
324
343
342
318
331
350
343
323
338
349
334
319
338
347
328
320
339
347
324
320
337
342
318
323
342
343
320
328
342
336
317
331
345
334
319
338
349
329
321
340
347
327
326
343
346
326
332
349
346
325
337
352
344
321
337
355
346
330
347
361
344
334
355
366
347
344
364
370
347
351
372
372
348
359
375
371
352
367
383
376
365
388
404
384
377
405
413
386
379
394
395
367
368
382
376
349
363
383
375
353
368
382
359
335
366
419
476
573
695
695
547
345
295
338
349
355
360
350
327
341
358
348
328
347
361
345
330
353
368
350
340
362
369
345
344
365
370
346
352
374
374
349
364
385
379
359
378
400
391
379
401
416
398
393
415
422
397
396
414
412
378
377
389
380
347
355
370
358
335
353
368
352
334
355
368
345
338
361
372
348
351
375
378
349
358
378
371
343
357
376
364
341
360
375
358
340
361
375
352
342
365
374
347
345
368
372
344
351
370
367
341
356
375
364
341
361
377
360
342
362
373
350
342
368
375
345
341
363
364
336
343
363
361
335
348
366
354
329
350
369
351
333
356
366
341
332
357
365
337
340
368
374
352
366
387
384
362
378
395
380
350
364
377
350
326
348
358
332
323
347
353
323
323
340
332
308
351
436
531
616
689
601
375
244
294
359
347
320
336
346
321
315
340
348
322
327
353
355
322
333
361
359
332
346
363
353
332
356
374
357
345
373
387
363
357
386
399
374
379
405
410
383
394
422
419
392
409
430
419
394
408
416
390
367
381
385
355
343
367
375
345
344
367
368
337
347
371
368
340
354
373
361
340
364
380
361
346
370
382
357
350
374
380
350
353
378
378
349
360
381
373
341
356
375
362
339
359
372
351
334
358
371
344
335
357
366
338
340
366
366
335
345
367
361
334
350
369
357
335
355
372
355
338
360
371
347
339
363
369
342
344
367
365
338
347
366
360
335
350
366
353
332
353
371
354
338
364
382
367
365
387
396
374
374
390
387
355
361
375
363
330
343
359
346
323
342
358
342
328
341
342
328
355
444
551
636
680
575
366
253
297
359
357
318
325
344
335
315
335
350
336
320
339
352
332
326
348
357
334
337
358
360
336
347
367
363
339
356
377
367
346
366
383
370
360
385
403
389
386
408
415
394
398
419
418
387
386
395
383
351
354
365
349
320
332
345
328
311
329
342
322
313
335
344
322
325
344
344
317
325
345
341
315
329
346
337
316
333
347
332
319
339
351
330
323
342
348
324
323
342
346
320
326
345
343
317
330
347
339
319
337
352
337
324
346
355
332
326
347
353
330
328
349
352
324
331
351
349
323
336
354
344
324
340
355
341
326
346
357
337
331
351
360
337
336
355
358
335
342
362
359
336
351
374
371
357
381
396
384
374
390
399
376
360
377
380
349
343
358
357
332
340
359
354
327
337
347
325
310
366
453
539
632
687
568
336
255
317
360
334
321
334
332
305
313
330
328
307
321
338
329
308
326
341
327
314
337
350
329
322
345
356
335
338
359
364
341
352
375
372
349
363
384
379
363
386
404
388
374
395
408
385
376
390
386
350
343
356
353
321
323
339
335
309
320
336
329
309
330
345
329
316
337
348
324
319
342
347
320
320
342
347
322
330
351
345
317
332
350
338
317
336
350
332
315
336
346
322
313
335
342
312
312
335
337
308
316
335
331
304
319
338
327
305
325
341
323
307
329
340
318
311
334
343
318
317
336
340
316
325
345
340
314
331
351
341
321
341
356
339
324
345
358
336
329
352
360
336
343
370
375
351
359
384
386
357
367
383
369
344
357
362
338
323
345
354
328
320
348
357
329
322
337
350
364
444
566
671
667
528
352
290
319
373
384
353
333
356
370
346
336
359
366
341
346
370
373
345
356
381
377
351
364
383
373
353
372
390
373
358
383
397
375
368
396
405
379
381
407
412
389
400
421
419
395
409
425
412
386
399
406
378
354
368
373
342
331
355
360
331
332
356
359
330
339
360
354
328
345
365
356
334
352
367
350
334
355
368
344
338
363
370
343
343
365
365
339
350
372
366
338
352
371
359
334
351
367
351
336
357
367
344
337
360
367
338
340
363
363
333
340
360
356
327
341
360
349
327
346
361
344
329
350
363
340
333
357
362
333
335
357
359
329
335
358
357
331
345
364
355
334
356
375
362
349
369
385
369
362
381
385
354
351
366
360
330
340
358
353
326
340
359
346
320
331
337
329
354
447
558
641
649
522
348
254
286
347
353
314
315
334
330
305
320
339
327
304
321
335
318
306
331
346
325
318
339
347
320
321
345
349
322
333
357
354
331
350
375
367
345
368
388
376
364
388
402
381
373
396
401
373
372
389
383
346
346
360
351
321
330
345
335
311
329
342
327
311
331
342
322
315
338
345
322
323
343
347
325
330
349
347
322
333
354
347
323
340
358
344
326
343
352
332
328
350
357
334
335
357
359
336
342
362
362
339
352
366
353
332
351
364
347
332
352
365
346
340
361
370
346
346
368
372
345
350
371
369
344
357
371
362
341
357
374
361
352
377
388
364
356
383
392
362
356
372
376
345
341
353
353
332
344
360
354
333
348
361
343
319
346
397
448
543
673
697
585
384
294
309
330
352
364
354
327
342
359
354
335
352
369
358
344
365
379
367
362
381
388
368
368
390
394
372
382
401
399
375
388
407
403
384
398
415
404
390
411
425
407
398
418
429
409
407
424
422
392
389
398
387
354
357
369
358
335
348
360
343
325
342
351
331
322
341
349
326
325
345
348
325
326
343
341
316
326
341
336
317
332
345
334
322
340
354
336
329
350
357
332
329
349
355
331
333
350
348
326
338
355
351
332
345
358
345
332
353
365
349
345
369
385
362
355
384
397
373
376
393
389
359
358
365
353
333
346
359
346
331
348
359
341
326
332
344
354
412
527
643
685
590
395
273
264
321
353
337
310
323
337
324
307
325
336
319
311
330
337
317
314
332
338
317
324
344
345
324
336
359
357
336
353
371
362
348
367
380
363
356
380
393
376
376
398
406
384
389
406
404
377
379
387
373
347
357
368
352
333
352
365
346
335
352
361
341
337
356
361
337
344
364
362
339
349
366
360
339
353
367
356
340
356
368
352
344
361
367
346
344
362
365
341
345
366
364
339
350
368
362
339
352
367
353
336
352
362
344
331
346
355
333
328
346
351
326
328
348
349
325
335
352
344
322
336
350
338
321
339
351
333
323
342
354
337
341
369
378
355
364
391
396
371
376
388
378
351
359
364
344
325
342
352
335
326
345
351
325
312
327
354
378
460
583
682
643
467
305
273
303
344
353
330
310
331
343
326
316
338
348
326
326
350
355
331
337
357
357
335
345
362
357
337
355
375
364
348
369
384
366
358
381
393
374
376
399
409
388
394
417
417
392
404
421
409
381
388
396
374
348
361
368
346
333
351
360
337
336
358
361
336
338
360
360
334
350
369
361
340
355
373
361
343
362
376
359
351
372
380
355
352
372
374
347
353
372
371
345
355
371
364
344
361
374
360
344
363
374
358
348
369
376
353
349
370
375
351
355
375
375
350
362
380
373
351
366
380
366
348
368
380
360
349
367
375
352
349
368
371
345
349
367
366
341
351
368
362
340
355
369
359
340
356
367
349
338
354
361
337
333
355
362
341
351
372
371
352
370
384
372
343
350
360
342
317
328
336
317
306
325
332
310
307
324
320
287
305
370
445
523
632
655
486
281
265
327
342
319
324
329
310
303
325
335
314
312
333
337
314
317
336
340
319
329
347
343
321
337
353
344
330
349
363
348
340
363
375
356
355
378
386
368
376
400
402
381
396
414
408
386
399
409
391
367
378
383
360
346
363
371
346
339
356
360
335
337
358
358
333
342
358
348
325
342
359
347
330
347
360
343
332
352
363
342
337
356
360
337
340
357
356
333
345
362
357
336
351
367
356
339
356
369
350
339
358
366
342
338
360
365
340
344
364
363
339
348
365
359
337
351
365
353
337
357
372
354
342
362
371
351
348
368
372
348
352
370
371
348
356
374
367
344
360
374
364
348
366
379
369
363
389
399
378
379
404
408
381
382
398
393
363
365
377
369
346
359
374
364
347
365
377
349
333
370
420
476
582
698
694
537
345
298
337
353
363
366
354
334
348
361
351
337
356
370
355
344
363
373
354
350
368
373
352
357
377
379
356
367
387
387
367
382
398
388
371
393
408
394
384
403
414
396
393
415
422
399
397
412
405
376
377
386
375
346
355
370
355
330
345
357
339
326
347
356
334
327
346
353
329
331
351
353
330
340
359
355
332
345
363
351
332
351
365
351
339
358
365
343
342
364
369
344
346
365
366
340
348
366
358
332
347
363
352
334
351
364
348
337
357
368
345
341
360
366
341
343
363
